ts,ecg
1365004402.1405,15131.47754
1365004402.14091,15106.09473
1365004402.14241,15108.28125
1365004402.14842,15121.9375
1365004402.17036,15099.16895
1365004402.17043,15106.52246
1365004402.18138,15095.6875
1365004402.18144,15080.35742
1365004402.18743,15092.20605
1365004402.20331,15060.39844
1365004402.20352,15061.02148
1365004402.21834,15051.28613
1365004402.2186,15020.41895
1365004402.23231,15019.14844
1365004402.23254,14984.21289
1365004402.24832,14966.83105
1365004402.25435,14958.85547
1365004402.25442,14925.09277
1365004402.2724,14934.86523
1365004402.27247,14917.38477
1365004402.28834,14922.74707
1365004402.28841,14955.19043
1365004402.30132,14962.6416
1365004402.30139,15015.85059
1365004402.31237,15042.99219
1365004402.32734,15064.51465
1365004402.32741,15103.96875
1365004402.34036,15103.16309
1365004402.34041,15127.61719
1365004402.36142,15135.67969
1365004402.36149,15127.44629
1365004402.37229,15151.79102
1365004402.37234,15143.32617
1365004402.38235,15149.93457
1365004402.40464,15163.9082
1365004402.40473,15143.06934
1365004402.41232,15165.04395
1365004402.41238,15152.43848
1365004402.42633,15148.04102
1365004402.42639,15161.13574
1365004402.4353,15135.72852
1365004402.45238,15154.6123
1365004402.45245,15149.44531
1365004402.46738,15137.60938
1365004402.46744,15163.79785
1365004402.48435,15140.06445
1365004402.48442,15154.7832
1365004402.49632,15162.6377
1365004402.50527,15150.05664
1365004402.50532,15171.71387
1365004402.52333,15153.21973
1365004402.5234,15158.96094
1365004402.53729,15171.84766
1365004402.53736,15150.12988
1365004402.5504,15169.13672
1365004402.55048,15159.90137
1365004402.56378,15162.68652
1365004402.57533,15182.23047
1365004402.57538,15162.83301
1365004402.59233,15179.17676
1365004402.5924,15173.31348
1365004402.60735,15161.53809
1365004402.60741,15181.71777
1365004402.62145,15165.04395
1365004402.62152,15174.97461
1365004402.63035,15180.1416
1365004402.64528,15161.28223
1365004402.64534,15174.59668
1365004402.66039,15146.79492
1365004402.66049,15147.94336
1365004402.67439,15156.13965
1365004402.67448,15158.8877
1365004402.68437,15192.43066
1365004402.70036,15181.80273
1365004402.70043,15174.52344
1365004402.71737,15189.87695
1365004402.71744,15173.17969
1365004402.73036,15191.00098
1365004402.73043,15192.49121
1365004402.74331,15182.8418
1365004402.74337,15196.60742
1365004402.75435,15176.26953
1365004402.77036,15188.90039
1365004402.77042,15187.93555
1365004402.78438,15132.74805
1365004402.78445,15075.54492
1365004402.79836,15002.88965
1365004402.80835,15227.32812
1365004402.80841,15924.6709
1365004402.82438,16428.73438
1365004402.82445,16295.41992
1365004402.84044,15942.90723
1365004402.8405,15556.30273
1365004402.85534,15324.18164
1365004402.85541,15203.32617
1365004402.87038,15188.80273
1365004402.87045,15164.00586
1365004402.87935,15144.97461
1365004402.89434,15156.70117
1365004402.8944,15133.10156
1365004402.90933,15141.35938
1365004402.90939,15128.02051
1365004402.92433,15111.43262
1365004402.9244,15125.56543
1365004402.93435,15097.61719
1365004402.95036,15091.77832
1365004402.95043,15094.56348
1365004402.96934,15061.66895
1365004402.9694,15065.82129
1365004402.97935,15041.12305
1365004402.97943,15017.29199
1365004402.99335,15015.54492
1365004402.99374,14971.74219
1365004403.00333,14966.94141
1365004403.01937,14948.39941
1365004403.01944,14936.94141
1365004403.03335,14956.86426
1365004403.03355,14945.28418
1365004403.04737,14972.02246
1365004403.05736,15009.73047
1365004403.05742,15034.14844
1365004403.06432,15080.44336
1365004403.07429,15085.90332
1365004403.08941,15117.73535
1365004403.0895,15137.73145
1365004403.10341,15130.65918
1365004403.1035,15153.96484
1365004403.11742,15151.88867
1365004403.12833,15151.14355
1365004403.1284,15170.60156
1365004403.1434,15149.82422
1365004403.14348,15165.71582
1365004403.15937,15160.76855
1365004403.15944,15150.89941
1365004403.17431,15162.08789
1365004403.17437,15141.11523
1365004403.18236,15157.73926
1365004403.19737,15158.08203
1365004403.19743,15143.76562
1365004403.21234,15169.58789
1365004403.21241,15153.59863
1365004403.22836,15159.14453
1365004403.22842,15164.53125
1365004403.24334,15153.35449
1365004403.25335,15167.96387
1365004403.25342,15154.74707
1365004403.26837,15152.69531
1365004403.26844,15173.14258
1365004403.28234,15154.27051
1365004403.2824,15170.62695
1365004403.29736,15168.12207
1365004403.30531,15156.17578
1365004403.30537,15176.24512
1365004403.31336,15158.11816
1365004403.32336,15167.20605
1365004403.33831,15171.90918
1365004403.33838,15152.03516
1365004403.35235,15172.4707
1365004403.35242,15159.07129
1365004403.36533,15157.41016
1365004403.37536,15173.9248
1365004403.37543,15160.8418
1365004403.38335,15172.2998
1365004403.39335,15162.36914
1365004403.40836,15159.69434
1365004403.40844,15177.66211
1365004403.42334,15149.37207
1365004403.42341,15151.71777
1365004403.42933,15136.69336
1365004403.44535,15126.78711
1365004403.44542,15162.08789
1365004403.46235,15160.96484
1365004403.46241,15169.90625
1365004403.47735,15178.29785
1365004403.47743,15156.09082
1365004403.49137,15178.96973
1365004403.49144,15160.87891
1365004403.50229,15164.17676
1365004403.51741,15174.22949
1365004403.51749,15155.96875
1365004403.53232,15178.15137
1365004403.53238,15164.7998
1365004403.54637,15161.99023
1365004403.54644,15153.23242
1365004403.55334,15062.02246
1365004403.56034,15010.54883
1365004403.57235,15117.27148
1365004403.59414,15711.88574
1365004403.5942,16368.6123
1365004403.60034,16331.74805
1365004403.60041,16022.0
1365004403.61643,15642.58984
1365004403.61651,15343.13867
1365004403.62536,15223.21191
1365004403.64238,15168.41602
1365004403.64248,15152.31641
1365004403.6624,15157.22656
1365004403.66247,15125.35742
1365004403.67248,15140.3457
1365004403.67269,15132.36914
1365004403.67833,15121.63184
1365004403.69538,15137.51172
1365004403.69545,15104.95898
1365004403.70334,15110.80957
1365004403.71236,15096.98242
1365004403.72741,15078.62305
1365004403.72748,15087.01465
1365004403.74039,15058.0166
1365004403.74049,15049.70996
1365004403.75038,15032.95117
1365004403.76437,14997.17383
1365004403.76445,15001.83984
1365004403.77935,14968.0166
1365004403.77942,14956.26562
1365004403.79442,14958.64746
1365004403.7945,14933.8877
1365004403.80438,14960.16211
1365004403.82046,14964.0957
1365004403.82052,14988.48828
1365004403.83535,15039.14453
1365004403.83544,15051.51758
1365004403.84936,15096.87207
1365004403.84943,15113.09375
1365004403.86533,15121.43652
1365004403.8654,15147.89453
1365004403.87735,15139.30762
1365004403.8954,15155.74902
1365004403.89547,15168.96484
1365004403.91036,15151.90039
1365004403.91044,15171.99414
1365004403.92037,15163.23633
1365004403.92043,15159.74316
1365004403.9274,15172.6543
1365004403.94435,15153.75781
1365004403.94442,15171.5791
1365004403.96042,15159.18066
1365004403.9605,15157.6543
1365004403.97535,15175.52441
1365004403.97542,15152.01074
1365004403.98842,15161.33105
1365004403.98848,15158.80273
1365004403.99944,15152.01074
1365004404.01435,15169.09961
1365004404.01442,15153.68457
1365004404.02928,15164.20117
1365004404.02934,15172.0918
1365004404.04437,15159.70605
1365004404.04445,15183.08594
1365004404.05436,15167.86621
1365004404.06839,15170.80957
1365004404.06849,15186.44531
1365004404.0844,15165.78906
1365004404.08447,15183.15918
1365004404.09854,15170.87109
1365004404.09874,15169.51465
1365004404.11536,15185.74902
1365004404.11543,15164.75098
1365004404.12237,15179.94629
1365004404.13951,15171.04199
1365004404.13971,15160.79297
1365004404.15534,15174.82812
1365004404.15541,15156.35938
1365004404.16739,15162.41797
1365004404.17738,15169.53906
1365004404.17749,15157.59277
1365004404.18435,15174.36426
1365004404.19435,15155.15039
1365004404.20835,15150.3252
1365004404.20842,15153.79395
1365004404.22339,15128.41113
1365004404.22345,15137.60938
1365004404.24941,15140.11328
1365004404.25235,15155.62598
1365004404.2524,15172.86133
1365004404.26343,15149.46973
1365004404.26361,15155.65039
1365004404.27839,15156.43262
1365004404.27846,15140.66309
1365004404.29236,15160.41504
1365004404.30236,15143.17969
1365004404.30242,15159.41309
1365004404.31839,15161.45312
1365004404.31847,15151.19238
1365004404.33349,15166.09473
1365004404.33367,15114.93848
1365004404.3744,15043.79785
1365004404.37447,14992.80078
1365004404.37834,15101.02539
1365004404.38028,15720.80273
1365004404.38033,16307.69629
1365004404.38233,16267.30176
1365004404.38835,15958.05469
1365004404.40354,15558.61133
1365004404.40422,15306.39648
1365004404.4174,15169.29492
1365004404.41747,15126.35938
1365004404.42836,15130.35352
1365004404.44239,15101.16016
1365004404.44261,15094.58789
1365004404.45837,15105.61816
1365004404.45856,15083.38672
1365004404.47339,15094.19727
1365004404.47346,15075.33691
1365004404.48533,15066.87207
1365004404.49549,15075.12988
1365004404.49566,15044.92188
1365004404.50353,15050.05176
1365004404.51339,15023.22852
1365004404.52835,15008.03223
1365004404.52845,15011.72168
1365004404.5414,14968.50488
1365004404.54147,14964.38867
1365004404.55236,14944.12402
1365004404.56537,14924.65332
1365004404.56544,14928.97754
1365004404.58341,14901.96973
1365004404.58347,14908.63867
1365004404.59838,14919.38867
1365004404.59845,14918.79004
1365004404.61143,14962.69043
1365004404.61151,14983.56641
1365004404.62236,15021.11523
1365004404.63735,15057.85742
1365004404.63742,15057.00293
1365004404.6524,15090.8623
1365004404.65246,15088.61523
1365004404.66635,15096.93359
1365004404.66642,15117.96777
1365004404.67742,15103.44434
1365004404.69242,15114.30273
1365004404.6926,15110.02832
1365004404.70535,15099.48633
1365004404.70542,15128.11816
1365004404.72037,15107.8291
1365004404.72042,15106.88867
1365004404.73635,15113.02051
1365004404.74438,15095.90723
1365004404.74445,15109.46582
1365004404.75237,15096.75
1365004404.76235,15095.73633
1365004404.7774,15108.25684
1365004404.77749,15095.43066
1365004404.78929,15105.63086
1365004404.78935,15091.26562
1365004404.80038,15091.48535
1365004404.8174,15116.03809
1365004404.81748,15093.26855
1365004404.83537,15110.45508
1365004404.83544,15111.43262
1365004404.85036,15111.05371
1365004404.85044,15133.40723
1365004404.86143,15113.33789
1365004404.87038,15123.28125
1365004404.87045,15121.90039
1365004404.88564,15111.16406
1365004404.88578,15128.26465
1365004404.89936,15109.22168
1365004404.89944,15111.4082
1365004404.91441,15116.28223
1365004404.91447,15092.68262
1365004404.92447,15114.9502
1365004404.93939,15105.72852
1365004404.93946,15098.60645
1365004404.95438,15111.09082
1365004404.95444,15078.40332
1365004404.96937,15106.25293
1365004404.96944,15124.35645
1365004404.98639,15127.11621
1365004404.98645,15132.58887
1365004404.99538,15104.20117
1365004405.00943,15110.87109
1365004405.0095,15122.14551
1365004405.02534,15110.46777
1365004405.02542,15130.13379
1365004405.0394,15119.45801
1365004405.04831,15118.84668
1365004405.04836,15131.94141
1365004405.06537,15107.8291
1365004405.06543,15112.04297
1365004405.08044,15052.31152
1365004405.08051,14978.31348
1365004405.09537,15004.70996
1365004405.09544,15309.96289
1365004405.10841,15879.36523
1365004405.11934,16097.97656
1365004405.11942,15927.99316
1365004405.13438,15676.31543
1365004405.13449,15383.75391
1365004405.1504,15216.72559
1365004405.15048,15132.65039
1365004405.16534,15093.15918
1365004405.16541,15105.17871
1365004405.17235,15081.84766
1365004405.18938,15074.83691
1365004405.18946,15073.68848
1365004405.20452,15059.44531
1365004405.20458,15072.01465
1365004405.21842,15054.9873
1365004405.21858,15047.68262
1365004405.23337,15064.41699
1365004405.23344,15035.91992
1365004405.24441,15038.65527
1365004405.25936,15026.26953
1365004405.25943,15000.78906
1365004405.27543,15012.61328
1365004405.27551,14970.62988
1365004405.2915,14961.15137
1365004405.29455,14959.11133
1365004405.29496,14938.78613
1365004405.3134,14947.4707
1365004405.31347,14923.82227
1365004405.32936,14933.60645
1365004405.32958,14958.45215
1365004405.34339,14954.62891
1365004405.34345,14996.31836
1365004405.35739,15006.62793
1365004405.36737,15019.9668
1365004405.36758,15053.13086
1365004405.3833,15045.97266
1365004405.38346,15071.53809
1365004405.39837,15085.85449
1365004405.39844,15079.09961
1365004405.41241,15100.91504
1365004405.4224,15084.02246
1365004405.4225,15094.72266
1365004405.43841,15104.86133
1365004405.43847,15087.22266
1365004405.45245,15110.10156
1365004405.45262,15090.71582
1365004405.46837,15090.60645
1365004405.46844,15097.88574
1365004405.48234,15075.80176
1365004405.48241,15091.96191
1365004405.4944,15090.82617
1365004405.50943,15085.18262
1365004405.50951,15102.57715
1365004405.52934,15081.24902
1365004405.52941,15100.08496
1365004405.53334,15103.57812
1365004405.54735,15097.10449
1365004405.5474,15119.65332
1365004405.56337,15100.06055
1365004405.56344,15108.07324
1365004405.57742,15117.36914
1365004405.5775,15101.7334
1365004405.5924,15113.49707
1365004405.59247,15104.73828
1365004405.60542,15104.9707
1365004405.61535,15116.31836
1365004405.61543,15103.34668
1365004405.62339,15122.57227
1365004405.63337,15112.18945
1365004405.64845,15100.5127
1365004405.64863,15125.1748
1365004405.66237,15101.83203
1365004405.66244,15112.43457
1365004405.67239,15106.10645
1365004405.68737,15083.83887
1365004405.68744,15095.89551
1365004405.70244,15080.72363
1365004405.70254,15108.46387
1365004405.71861,15122.42578
1365004405.71873,15102.75977
1365004405.7304,15120.28809
1365004405.74343,15102.75977
1365004405.74349,15110.79785
1365004405.76239,15123.12207
1365004405.76261,15110.00391
1365004405.77743,15127.45898
1365004405.77752,15123.97754
1365004405.78837,15113.17969
1365004405.79432,15133.39551
1365004405.79446,15101.2334
1365004405.80038,15059.25
1365004405.81037,14979.35156
1365004405.82736,14970.33691
1365004405.82761,15402.08887
1365004405.84038,16111.04688
1365004405.84047,16369.38184
1365004405.85665,16110.94922
1365004405.85684,15728.97363
1365004405.86535,15408.30566
1365004405.88347,15188.81445
1365004405.88385,15131.74609
1365004405.89741,15123.21973
1365004405.89747,15089.20117
1365004405.90936,15093.19531
1365004405.90941,15085.62207
1365004405.92037,15075.16602
1365004405.93538,15084.21777
1365004405.93546,15058.63965
1365004405.95241,15068.28906
1365004405.95249,15059.32324
1365004405.96738,15035.5166
1365004405.96744,15046.43652
1365004405.98336,15018.9043
1365004405.98343,15013.13867
1365004405.98752,15006.09082
1365004406.00538,14967.2832
1365004406.00546,14964.74219
1365004406.02042,14935.21875
1365004406.02049,14923.0166
1365004406.03441,14917.27539
1365004406.03449,14887.97168
1365004406.04442,14906.48926
1365004406.06038,14895.53223
1365004406.06045,14906.62402
1365004406.07439,14952.39355
1365004406.07447,14964.93848
1365004406.08937,15014.58008
1365004406.08944,15039.76758
1365004406.10539,15057.2959
1365004406.10547,15093.83105
1365004406.11441,15087.91895
1365004406.13041,15105.06836
1365004406.13047,15116.81934
1365004406.14544,15101.19629
1365004406.14562,15128.97363
1365004406.15936,15116.77051
1365004406.16835,15123.52539
1365004406.16844,15136.68066
1365004406.17529,15111.75
1365004406.18542,15132.69922
1365004406.20065,15127.42188
1365004406.20083,15122.26758
1365004406.22035,15139.84473
1365004406.22042,15111.82324
1365004406.23239,15127.22656
1365004406.23246,15128.49707
1365004406.23535,15118.87109
1365004406.25336,15135.16602
1365004406.25343,15123.86719
1365004406.26951,15131.31836
1365004406.26969,15136.29004
1365004406.28446,15122.96387
1365004406.28465,15141.45703
1365004406.29437,15132.77246
1365004406.30847,15136.44922
1365004406.30864,15151.13086
1365004406.32337,15131.67285
1365004406.32344,15152.63379
1365004406.33829,15155.52832
1365004406.33835,15147.65039
1365004406.35337,15164.18945
1365004406.35344,15140.35742
1365004406.36435,15159.04688
1365004406.37945,15154.86914
1365004406.37963,15140.1748
1365004406.39341,15158.5459
1365004406.39349,15136.54688
1365004406.40734,15135.81348
1365004406.41837,15130.03613
1365004406.41844,15123.28125
1365004406.42537,15162.07617
1365004406.43437,15150.74023
1365004406.45039,15153.5498
1365004406.45046,15161.63574
1365004406.46437,15141.0293
1365004406.46445,15163.9082
1365004406.47741,15157.6416
1365004406.48856,15155.87109
1365004406.48866,15171.00488
1365004406.50364,15147.47949
1365004406.50378,15163.13867
1365004406.51838,15157.59277
1365004406.51846,15131.14746
1365004406.53237,15100.1582
1365004406.53243,14997.02734
1365004406.54347,15017.60938
1365004406.5584,15476.86914
1365004406.55849,16184.42285
1365004406.57345,16403.46289
1365004406.57384,16125.14355
1365004406.58853,15750.38672
1365004406.5886,15423.15918
1365004406.60237,15210.23926
1365004406.61337,15168.18359
1365004406.61361,15141.51855
1365004406.62881,15122.42578
1365004406.62904,15132.94336
1365004406.64348,15104.05469
1365004406.64412,15109.63672
1365004406.65737,15107.90234
1365004406.65744,15097.2998
1365004406.66837,15111.7627
1365004406.68439,15081.96973
1365004406.68446,15070.69531
1365004406.7033,15062.57227
1365004406.70335,15035.25977
1365004406.71536,15043.3584
1365004406.71544,15009.91406
1365004406.72741,15001.94922
1365004406.73729,14995.48828
1365004406.73735,14950.21875
1365004406.75242,14948.83887
1365004406.75252,14929.92969
1365004406.76736,14914.85645
1365004406.76745,14924.55566
1365004406.78136,14908.13867
1365004406.78143,14935.58496
1365004406.79244,14966.18359
1365004406.81033,14989.6123
1365004406.8104,15029.13965
1365004406.82241,15029.78711
1365004406.82248,15063.84277
1365004406.83761,15089.18945
1365004406.83778,15094.35645
1365004406.85044,15117.2832
1365004406.86238,15109.97852
1365004406.86245,15115.76855
1365004406.87739,15129.29102
1365004406.87747,15110.08887
1365004406.89342,15127.83691
1365004406.89351,15119.17676
1365004406.90837,15114.4375
1365004406.90844,15129.2666
1365004406.91536,15108.35449
1365004406.93235,15112.04297
1365004406.93241,15101.34277
1365004406.94735,15109.39258
1365004406.94742,15134.88574
1365004406.96044,15114.9502
1365004406.96051,15112.51953
1365004406.97637,15126.12695
1365004406.97643,15113.10645
1365004406.98743,15122.62109
1365004407.00234,15127.49512
1365004407.00243,15135.27637
1365004407.01743,15149.37207
1365004407.0175,15130.25586
1365004407.02936,15147.2959
1365004407.02945,15141.88477
1365004407.04045,15131.63574
1365004407.05545,15148.72461
1365004407.05552,15136.65625
1365004407.07238,15145.02344
1365004407.07248,15149.53125
1365004407.08741,15134.54297
1365004407.08749,15159.03418
1365004407.10031,15137.02344
1365004407.10037,15150.60645
1365004407.11037,15162.82129
1365004407.12544,15136.79102
1365004407.12554,15163.30957
1365004407.14051,15142.25098
1365004407.14076,15127.66602
1365004407.15744,15133.37109
1365004407.15752,15108.03711
1365004407.16335,15143.10645
1365004407.17936,15157.11621
1365004407.17943,15155.30859
1365004407.19536,15172.69043
1365004407.19545,15147.6748
1365004407.20937,15162.56445
1365004407.20944,15162.57715
1365004407.22543,15154.2832
1365004407.2255,15172.20215
1365004407.2343,15155.96875
1365004407.25041,15160.3291
1365004407.25047,15182.85352
1365004407.26428,15151.87598
1365004407.26434,15148.65137
1365004407.27838,15065.6875
1365004407.28943,14992.83691
1365004407.28949,15117.62598
1365004407.2973,15654.1084
1365004407.3045,16300.31836
1365004407.32044,16292.08594
1365004407.32051,15977.46387
1365004407.33441,15634.01465
1365004407.33448,15316.40039
1365004407.3484,15199.94238
1365004407.35935,15181.81543
1365004407.35941,15134.44531
1365004407.37437,15150.16602
1365004407.37444,15117.88184
1365004407.39237,15119.8125
1365004407.39244,15136.26562
1365004407.40548,15093.20801
1365004407.40565,15115.36621
1365004407.41239,15093.74512
1365004407.42831,15081.53027
1365004407.42836,15102.60156
1365004407.44337,15051.46875
1365004407.44359,15073.13867
1365004407.45836,15043.48047
1365004407.45844,15011.0127
1365004407.47341,15034.51465
1365004407.47374,14976.75
1365004407.4834,14974.12402
1365004407.49952,14972.71875
1365004407.49996,14938.77344
1365004407.51339,14978.91211
1365004407.51361,14943.04883
1365004407.52733,14956.53418
1365004407.53837,14985.97266
1365004407.53855,14970.66699
1365004407.54537,15026.37988
1365004407.55434,15025.65918
1365004407.56938,15061.68066
1365004407.56956,15112.69043
1365004407.58336,15092.35254
1365004407.58343,15131.44043
1365004407.59747,15110.96875
1365004407.60934,15102.75977
1365004407.60956,15149.73926
1365004407.62849,15103.40723
1365004407.62888,15127.10449
1365004407.64035,15128.7168
1365004407.64057,15101.33105
1365004407.65239,15142.99609
1365004407.65246,15100.46387
1365004407.66348,15114.7793
1365004407.67848,15139.57617
1365004407.67855,15090.77734
1365004407.6933,15135.41016
1365004407.69345,15100.56152
1365004407.70833,15097.99609
1365004407.70857,15122.87793
1365004407.72039,15085.08496
1365004407.73245,15120.59375
1365004407.73269,15120.69141
1365004407.7484,15105.11719
1365004407.74848,15154.14844
1365004407.76342,15114.49902
1365004407.76376,15132.07617
1365004407.77742,15141.45703
1365004407.7775,15112.33691
1365004407.78836,15147.6748
1365004407.8034,15112.11621
1365004407.8035,15131.36719
1365004407.81845,15166.18066
1365004407.81852,15117.34473
1365004407.8324,15153.1709
1365004407.8325,15138.39062
1365004407.84742,15125.8584
1365004407.85531,15158.25293
1365004407.85536,15114.10742
1365004407.86366,15147.83301
1365004407.87335,15133.02832
1365004407.88836,15106.09473
1365004407.88841,15145.06055
1365004407.9014,15100.18262
1365004407.90146,15139.17285
1365004407.91241,15153.58691
1365004407.92543,15124.42969
1365004407.9256,15159.84082
1365004407.94337,15114.55957
1365004407.94344,15130.70801
1365004407.95729,15154.27051
1365004407.95734,15111.39551
1365004407.97036,15155.44336
1365004407.98043,15130.93945
1365004407.9805,15128.2041
1365004407.99738,15154.97949
1365004407.99745,15109.50293
1365004408.01242,15097.16504
1365004408.0125,14997.4668
1365004408.0263,14948.58203
1365004408.02637,15212.02344
1365004408.03538,15741.84863
1365004408.05335,16158.36816
1365004408.05341,16070.35938
1365004408.06538,15760.39062
1365004408.06545,15486.4209
1365004408.08842,15235.5
1365004408.0885,15147.66211
1365004408.09235,15137.96387
1365004408.10537,15090.50781
1365004408.10544,15126.35938
1365004408.12235,15090.19043
1365004408.12242,15077.93945
1365004408.13537,15108.15918
1365004408.13544,15063.0127
1365004408.14939,15086.92969
1365004408.16035,15070.64648
1365004408.16042,15045.65527
1365004408.17536,15076.02148
1365004408.17544,15032.24316
1365004408.19239,15044.55566
1365004408.19247,15038.14258
1365004408.20743,14985.97266
1365004408.20751,15007.78809
1365004408.22035,14963.5459
1365004408.22043,14958.69629
1365004408.2304,14966.64844
1365004408.2454,14914.9541
1365004408.24548,14952.94336
1365004408.26245,14925.16602
1365004408.26262,14936.50195
1365004408.27436,14982.89453
1365004408.27443,14967.4541
1365004408.28535,15021.32227
1365004408.30035,15036.33496
1365004408.30042,15037.72754
1365004408.31842,15102.71094
1365004408.31852,15077.68262
1365004408.33039,15103.7002
1365004408.33046,15120.66699
1365004408.34539,15098.41113
1365004408.34547,15139.72266
1365004408.35532,15097.00684
1365004408.36943,15113.96094
1365004408.3695,15138.13477
1365004408.38537,15099.10742
1365004408.38545,15135.99707
1365004408.39936,15112.60547
1365004408.40843,15106.10645
1365004408.40852,15140.41895
1365004408.41537,15096.87207
1365004408.42543,15134.34766
1365004408.44036,15118.08984
1365004408.44045,15096.04199
1365004408.4574,15138.92871
1365004408.45757,15102.90625
1365004408.46841,15123.75781
1365004408.47935,15132.35645
1365004408.47941,15100.65918
1365004408.49446,15141.41992
1365004408.49463,15120.67969
1365004408.50941,15137.54785
1365004408.50947,15156.81152
1365004408.52448,15119.61621
1365004408.52494,15161.67285
1365004408.5344,15119.66504
1365004408.55244,15123.46387
1365004408.55292,15154.30762
1365004408.56941,15104.04297
1365004408.56948,15142.11621
1365004408.57935,15123.63574
1365004408.5794,15115.8418
1365004408.59346,15154.40527
1365004408.59396,15103.57812
1365004408.60335,15128.14258
1365004408.61931,15129.10742
1365004408.61937,15079.7959
1365004408.63344,15121.57129
1365004408.63351,15073.57812
1365004408.64736,15106.87598
1365004408.65838,15138.96484
1365004408.65845,15100.69531
1365004408.66536,15145.81738
1365004408.67434,15107.53613
1365004408.68846,15115.69531
1365004408.68863,15163.3584
1365004408.70339,15104.87305
1365004408.70345,15134.88574
1365004408.71733,15131.50195
1365004408.72734,15101.96582
1365004408.72741,15144.65723
1365004408.73441,15098.61914
1365004408.74437,15098.08203
1365004408.75935,15018.06152
1365004408.7596,14915.22266
1365004408.77237,15109.08691
1365004408.77246,15704.51953
1365004408.78333,16313.86523
1365004408.7984,16285.26953
1365004408.7987,15927.22363
1365004408.8138,15587.79297
1365004408.81403,15277.62988
1365004408.82838,15128.39941
1365004408.82863,15123.66016
1365004408.84244,15063.59863
1365004408.85352,15088.06543
1365004408.85372,15065.52832
1365004408.8684,15039.91406
1365004408.86847,15065.69922
1365004408.8835,15009.05859
1365004408.88369,15035.63867
1365004408.89636,15033.43945
1365004408.89643,14991.87207
1365004408.90742,15043.48047
1365004408.92345,14986.09473
1365004408.92363,14992.72754
1365004408.93743,14993.86328
1365004408.9375,14935.23145
1365004408.95244,14957.63379
1365004408.95261,14907.41797
1365004408.96637,14889.97461
1365004408.97736,14912.41406
1365004408.97741,14851.05762
1365004408.99337,14881.80273
1365004408.99344,14871.61523
1365004409.00837,14855.33301
1365004409.00843,14919.88965
1365004409.02635,14902.53125
1365004409.02642,14967.625
1365004409.02935,14992.6543
1365004409.04733,14982.73535
1365004409.0474,15040.91504
1365004409.06343,15013.76172
1365004409.0635,15048.68457
1365004409.07735,15075.47168
1365004409.07744,15039.58398
1365004409.09038,15076.86426
1365004409.10237,15053.11816
1365004409.10246,15054.6084
1365004409.11762,15073.0166
1365004409.11783,15023.98535
1365004409.13236,15056.96582
1365004409.13244,15053.85059
1365004409.14542,15034.02637
1365004409.14559,15073.9082
1365004409.16036,15017.86523
1365004409.17339,15038.59473
1365004409.17345,15043.67578
1365004409.18838,15025.30469
1365004409.18845,15067.43457
1365004409.2024,15017.81641
1365004409.20248,15034.91797
1365004409.21632,15060.38574
1365004409.21638,15017.25488
1365004409.22736,15058.12598
1365004409.23335,15033.09766
1365004409.24429,15031.98633
1365004409.26237,15067.94727
1365004409.26244,15013.81055
1365004409.27239,15062.51172
1365004409.27245,15043.0166
1365004409.27844,15031.50977
1365004409.29535,15063.97754
1365004409.29542,15013.27246
1365004409.31246,15044.34766
1365004409.31264,15043.91992
1365004409.32736,15001.66895
1365004409.32743,15041.29395
1365004409.34034,14992.4834
1365004409.3404,14998.78613
1365004409.35039,15020.6875
1365004409.36942,14993.86328
1365004409.3695,15051.4082
1365004409.38035,15015.11719
1365004409.38044,15009.75488
1365004409.3934,15046.71777
1365004409.40437,14998.96875
1365004409.40445,15033.04883
1365004409.42039,15020.41895
1365004409.42046,15002.6582
1365004409.43437,15035.41895
1365004409.43445,14990.91895
1365004409.44938,15019.11133
1365004409.44945,15013.66406
1365004409.46543,14941.85156
1365004409.46553,14908.19922
1365004409.47733,14813.09375
1365004409.4954,15028.54199
1365004409.49549,15708.36719
1365004409.50944,16171.08398
1365004409.50961,16108.93359
1365004409.52038,15761.08691
1365004409.52738,15373.51758
1365004409.52745,15153.35449
1365004409.53435,14979.58398
1365004409.54533,14982.05176
1365004409.55941,14943.57422
1365004409.55948,14918.43555
1365004409.5743,14954.7998
1365004409.57436,14899.47754
1365004409.58838,14917.55566
1365004409.59942,14903.81445
1365004409.59948,14869.58789
1365004409.61447,14920.85449
1365004409.61493,14864.31055
1365004409.62944,14871.56641
1365004409.62951,14879.43262
1365004409.64439,14821.82715
1365004409.64475,14859.25391
1365004409.65438,14809.9668
1365004409.6684,14804.46973
1365004409.66848,14824.84473
1365004409.68453,14747.13281
1365004409.68494,14782.10352
1365004409.69941,14763.95215
1365004409.69948,14737.42188
1365004409.71455,14785.34082
1365004409.71497,14740.98828
1365004409.72439,14787.82031
1365004409.7393,14808.69629
1365004409.73943,14810.6748
1365004409.75338,14883.39062
1365004409.7536,14854.36816
1365004409.76834,14884.29492
1365004409.77854,14921.13477
1365004409.77907,14880.37402
1365004409.7853,14937.91895
1365004409.79543,14916.65234
1365004409.80936,14913.65918
1365004409.80957,14948.79004
1365004409.82348,14896.07031
1365004409.82355,14937.24707
1365004409.83736,14916.9209
1365004409.84837,14902.10449
1365004409.84854,14945.58984
1365004409.8644,14879.32324
1365004409.86449,14915.25977
1365004409.87946,14927.52344
1365004409.87963,14884.7832
1365004409.8934,14922.4541
1365004409.89347,14892.32031
1365004409.90335,14911.11914
1365004409.91837,14928.08496
1365004409.91855,14878.5293
1365004409.9334,14916.06543
1365004409.93347,14894.38379
1365004409.9744,14898.45215
1365004409.97456,14944.13574
1365004409.97835,14890.34082
1365004409.98032,14932.34863
1365004409.98037,14909.34766
1365004409.99236,14894.26172
1365004409.9925,14940.05566
1365004410.0033,14889.4248
1365004410.00341,14918.7041
1365004410.01739,14908.19922
1365004410.01761,14878.3584
1365004410.02837,14922.23438
1365004410.04249,14875.76855
1365004410.0429,14911.2041
1365004410.05841,14948.63086
1365004410.05848,14898.7207
1365004410.07245,14941.60742
1365004410.07299,14898.81836
1365004410.08637,14895.27637
1365004410.09741,14936.7334
1365004410.0975,14884.7959
1365004410.11341,14917.69043
1365004410.11371,14895.37402
1365004410.1284,14889.37598
1365004410.12871,14938.0166
1365004410.14236,14883.57422
1365004410.14244,14882.02246
1365004410.15238,14810.49121
1365004410.16933,14730.91113
1365004410.16939,14915.04004
1365004410.18443,15429.57227
1365004410.1845,15977.19531
1365004410.20335,15954.45117
1365004410.20344,15634.08789
1365004410.21437,15312.14941
1365004410.21444,15024.93848
1365004410.21834,14908.33398
1365004410.23747,14921.41602
1365004410.23766,14855.25977
1365004410.25238,14879.86035
1365004410.25247,14855.65039
1365004410.26538,14838.50098
1365004410.26545,14874.58398
1365004410.27735,14814.18066
1365004410.29243,14847.22168
1365004410.2925,14845.16992
1365004410.30837,14808.20703
1365004410.30843,14847.13672
1365004410.32243,14800.90332
1365004410.3225,14808.70801
1365004410.33633,14808.10938
1365004410.33639,14743.29688
1365004410.34737,14786.13477
1365004410.36235,14744.99512
1365004410.3624,14740.85352
1365004410.37737,14755.86621
1365004410.37744,14704.42871
1365004410.38937,14745.69141
1365004410.38946,14721.93262
1365004410.40032,14713.84668
1365004410.41742,14774.73828
1365004410.41752,14744.17676
1365004410.43738,14792.42578
1365004410.43745,14810.61426
1365004410.45341,14805.84961
1365004410.45348,14871.06543
1365004410.46335,14838.76953
1365004410.46731,14862.41797
1365004410.46737,14879.93359
1365004410.48544,14853.19531
1365004410.48551,14900.6875
1365004410.50032,14861.48926
1365004410.50038,14871.83496
1365004410.51443,14902.93457
1365004410.5145,14854.64844
1365004410.52537,14897.30371
1365004410.54045,14879.94629
1365004410.54052,14869.9668
1365004410.55539,14910.66699
1365004410.55546,14855.49121
1365004410.57045,14893.39453
1365004410.57062,14888.67969
1365004410.58535,14857.18945
1365004410.58542,14911.0459
1365004410.59535,14863.83496
1365004410.61036,14882.38867
1365004410.61044,14903.44824
1365004410.62765,14864.73828
1365004410.62779,14912.63379
1365004410.64837,14876.23242
1365004410.65235,14884.82031
1365004410.65244,14914.45312
1365004410.66736,14866.7168
1365004410.66745,14910.04395
1365004410.68541,14891.50195
1365004410.68548,14886.08984
1365004410.70038,14934.10742
1365004410.70046,14877.97949
1365004410.70434,14911.49707
1365004410.70442,14913.92871
1365004410.72041,14889.11914
1365004410.73537,14932.45801
1365004410.73544,14883.7207
1365004410.75045,14899.77148
1365004410.75052,14907.14844
1365004410.76737,14866.09473
1365004410.76745,14935.23145
1365004410.77031,14912.38867
1365004410.78942,14918.16699
1365004410.7895,14951.97754
1365004410.80541,14893.26074
1365004410.80551,14926.97363
1365004410.81967,14912.30371
1365004410.81982,14914.74707
1365004410.83351,14953.93262
1365004410.8337,14896.52148
1365004410.84438,14933.80176
1365004410.85937,14941.94922
1365004410.85943,14905.51172
1365004410.87436,14922.57617
1365004410.87443,14820.25098
1365004410.89053,14773.37012
1365004410.89937,14865.72754
1365004410.89944,15307.66699
1365004410.90751,15951.14062
1365004410.91433,16003.29883
1365004410.92948,15754.94336
1365004410.92967,15446.79492
1365004410.94454,15104.20117
1365004410.94479,15004.05078
1365004410.95738,14941.68066
1365004410.96838,14911.07031
1365004410.96845,14952.44238
1365004410.98339,14892.33203
1365004410.98345,14912.2666
1365004410.99947,14906.72168
1365004410.99964,14872.55566
1365004411.01239,14917.43359
1365004411.01246,14868.5498
1365004411.02334,14884.88086
1365004411.03836,14890.26758
1365004411.03843,14833.33398
1365004411.0544,14881.07031
1365004411.05447,14832.40527
1365004411.06938,14825.30859
1365004411.06944,14844.7666
1365004411.08241,14775.6543
1365004411.08248,14813.80176
1365004411.09344,14788.05273
1365004411.1094,14765.27148
1365004411.10947,14795.52832
1365004411.14839,14743.54102
1365004411.14845,14779.00098
1365004411.15137,14791.52148
1365004411.15142,14782.0918
1365004411.15336,14866.57031
1365004411.16738,14834.53027
1365004411.16756,14867.73145
1365004411.17843,14892.42969
1365004411.1785,14867.2666
1365004411.19342,14933.25195
1365004411.19398,14902.25098
1365004411.20644,14922.0752
1365004411.21734,14953.5166
1365004411.21739,14902.61719
1365004411.23348,14950.28027
1365004411.23397,14932.71484
1365004411.2484,14927.15723
1365004411.24847,14961.81152
1365004411.26238,14904.81543
1365004411.26272,14944.24609
1365004411.27239,14939.40918
1365004411.28738,14911.42383
1365004411.28744,14970.1543
1365004411.30336,14912.43848
1365004411.30361,14936.68457
1365004411.31738,14961.28613
1365004411.31744,14930.95605
1365004411.33049,14969.5918
1365004411.33101,14933.99707
1365004411.34239,14954.32324
1365004411.35743,14985.78906
1365004411.35762,14930.60156
1365004411.37337,14982.42969
1365004411.37359,14957.20605
1365004411.38835,14950.97656
1365004411.38844,14997.72363
1365004411.39538,14937.75977
1365004411.41239,14979.18066
1365004411.41245,14982.8457
1365004411.42734,14950.51172
1365004411.42752,14988.03711
1365004411.44244,14934.08301
1365004411.44251,14952.05078
1365004411.45632,14991.61523
1365004411.45655,14965.90332
1365004411.46739,15025.29199
1365004411.48338,14981.86816
1365004411.48346,14971.57129
1365004411.49839,15008.14258
1365004411.49861,14966.20801
1365004411.51041,15008.30176
1365004411.52035,14986.0459
1365004411.5204,14983.79785
1365004411.53738,15024.40039
1365004411.53761,14954.98242
1365004411.55236,15007.99609
1365004411.55242,14985.1416
1365004411.56737,14893.29688
1365004411.56761,14882.15723
1365004411.58145,14894.28613
1365004411.58152,15373.94531
1365004411.59051,15967.72852
1365004411.60738,16002.07715
1365004411.60775,15825.39941
1365004411.62234,15469.71094
1365004411.62252,15214.55176
1365004411.63439,15082.80078
1365004411.63462,14979.97461
1365004411.64534,15007.72754
1365004411.66256,14973.43945
1365004411.66301,14958.41504
1365004411.67741,14995.24316
1365004411.67747,14930.95605
1365004411.69049,14969.45801
1365004411.69116,14965.93945
1365004411.70542,14935.86621
1365004411.70564,14979.47363
1365004411.71534,14923.50488
1365004411.73239,14938.99316
1365004411.73263,14944.77148
1365004411.74736,14894.81152
1365004411.74742,14927.01074
1365004411.75939,14862.33203
1365004411.76836,14871.21191
1365004411.76858,14893.33398
1365004411.77534,14818.44336
1365004411.78548,14853.35449
1365004411.80036,14818.80957
1365004411.80058,14812.83691
1365004411.81735,14859.24121
1365004411.81756,14817.00195
1365004411.82938,14884.00195
1365004411.8404,14897.91406
1365004411.84047,14896.64355
1365004411.8604,14963.22754
1365004411.86063,14917.94727
1365004411.87338,14960.80957
1365004411.87345,14988.80664
1365004411.8843,14953.16309
1365004411.8945,15010.25586
1365004411.89503,14968.65137
1365004411.90941,14981.85547
1365004411.90948,15007.51953
1365004411.92936,14958.07324
1365004411.92957,15006.7627
1365004411.94442,14980.40234
1365004411.9445,14979.53516
1365004411.95538,15020.83398
1365004411.9556,14961.18848
1365004411.96237,14998.08984
1365004411.97936,14993.24023
1365004411.97942,14976.61523
1365004411.99537,15029.00586
1365004411.99559,14980.65918
1365004412.00841,15006.37109
1365004412.01731,15019.08691
1365004412.01744,14983.3584
1365004412.02537,15036.46875
1365004412.03443,14995.52441
1365004412.04933,15017.31641
1365004412.04945,15044.37207
1365004412.0644,14992.54395
1365004412.06462,15040.43945
1365004412.07936,15001.90039
1365004412.08847,15017.8291
1365004412.08866,15061.75391
1365004412.09432,14984.27441
1365004412.13238,15023.10547
1365004412.13428,15013.1748
1365004412.13434,14984.93359
1365004412.13734,15052.83691
1365004412.13739,15016.16797
1365004412.14336,15051.46875
1365004412.16236,15059.68945
1365004412.16243,15007.42188
1365004412.17535,15052.94727
1365004412.17542,15010.64648
1365004412.18934,15028.06543
1365004412.18941,15063.42773
1365004412.20435,15012.18555
1365004412.20442,15060.80176
1365004412.20845,15031.9375
1365004412.2284,15029.2627
1365004412.22847,15038.11816
1365004412.24337,14921.00098
1365004412.24345,14907.24707
1365004412.25737,15028.23633
1365004412.25744,15581.44141
1365004412.26841,16175.71289
1365004412.28351,16078.83594
1365004412.2837,15829.75977
1365004412.29837,15477.04004
1365004412.29843,15179.92188
1365004412.31433,15104.44531
1365004412.31439,15027.58887
1365004412.33037,15025.40234
1365004412.33336,15045.26367
1365004412.33343,14990.96777
1365004412.35241,15027.87012
1365004412.35253,14989.18457
1365004412.36741,14990.21094
1365004412.36748,15024.74316
1365004412.38147,14966.77051
1365004412.38164,15007.11621
1365004412.39258,14988.63477
1365004412.40739,14954.36035
1365004412.40746,14986.09473
1365004412.4234,14933.27637
1365004412.42351,14943.20801
1365004412.4384,14928.53711
1365004412.43848,14889.80371
1365004412.45241,14922.23438
1365004412.45265,14864.64062
1365004412.46239,14874.46191
1365004412.47833,14890.80566
1365004412.47851,14842.27539
1365004412.49238,14892.02637
1365004412.49263,14882.71875
1365004412.50536,14905.8418
1365004412.50541,14973.13477
1365004412.51533,14942.96289
1365004412.53241,14995.42676
1365004412.53248,15000.34961
1365004412.54846,14995.70801
1365004412.54864,15050.58984
1365004412.56436,15014.60449
1365004412.56444,15042.93066
1365004412.5773,15055.3291
1365004412.57736,15030.54492
1365004412.58738,15078.0
1365004412.59437,15033.13477
1365004412.60234,15052.32422
1365004412.61839,15078.20801
1365004412.61846,15024.29102
1365004412.63039,15065.35742
1365004412.64247,15035.41895
1365004412.64265,15037.77637
1365004412.65534,15074.31152
1365004412.65541,15023.45996
1365004412.6734,15065.05176
1365004412.67348,15049.77148
1365004412.68736,15036.90918
1365004412.68743,15088.66406
1365004412.70142,15043.23633
1365004412.70149,15069.2666
1365004412.71031,15069.18066
1365004412.72536,15039.81641
1365004412.72543,15086.2207
1365004412.74039,15045.8623
1365004412.74044,15062.14551
1365004412.7544,15088.79785
1365004412.7545,15047.98828
1365004412.76546,15093.61133
1365004412.78736,15051.75
1365004412.78743,15043.56641
1365004412.80238,15084.30273
1365004412.80246,15037.72754
1365004412.81447,15093.25684
1365004412.81465,15095.11328
1365004412.82537,15079.44141
1365004412.83539,15109.03809
1365004412.83545,15052.20215
1365004412.85038,15081.53027
1365004412.85045,15091.16797
1365004412.86546,15064.44141
1365004412.86553,15103.82227
1365004412.88046,15059.54297
1365004412.88834,15082.94727
1365004412.8884,15104.0918
1365004412.89742,15035.62598
1365004412.90536,15025.24316
1365004412.92239,14924.15234
1365004412.92263,14921.9043
1365004412.93536,15305.19922
1365004412.93541,15944.2998
1365004412.95039,16245.02148
1365004412.95937,16015.11035
1365004412.95946,15662.19434
1365004412.97549,15364.88184
1365004412.97567,15124.97949
1365004412.99036,15087.4668
1365004412.99043,15079.22168
1365004413.00339,15040.13379
1365004413.00346,15069.04688
1365004413.01538,15035.52832
1365004413.03441,15044.10352
1365004413.03447,15049.31934
1365004413.05038,15014.48242
1365004413.05045,15055.73242
1365004413.06341,15014.12793
1365004413.06347,15015.3125
1365004413.07443,15036.48145
1365004413.08438,14982.79688
1365004413.08445,15007.91016
1365004413.09942,14979.51074
1365004413.09949,14954.64062
1365004413.11454,14974.30664
1365004413.11502,14914.74707
1365004413.12841,14926.16797
1365004413.12849,14915.91895
1365004413.1393,14880.05566
1365004413.15448,14914.31934
1365004413.15455,14879.38379
1365004413.17736,14902.37305
1365004413.17744,14945.10059
1365004413.18436,14935.83008
1365004413.18443,15000.77734
1365004413.20936,14991.0293
1365004413.21229,15012.42969
1365004413.21234,15062.02246
1365004413.22442,15026.00098
1365004413.2245,15068.05664
1365004413.23932,15062.20605
1365004413.23938,15055.09668
1365004413.25641,15089.61621
1365004413.25648,15043.21191
1365004413.26237,15073.5293
1365004413.27835,15081.26172
1365004413.27842,15050.3457
1365004413.29441,15087.03906
1365004413.29448,15052.83691
1365004413.30935,15055.41504
1365004413.30942,15072.55176
1365004413.32243,15045.875
1365004413.3225,15077.12109
1365004413.33335,15046.64453
1365004413.34836,15051.73828
1365004413.34843,15073.04102
1365004413.36341,15043.29688
1365004413.36348,15066.70117
1365004413.37736,15055.65918
1365004413.37743,15049.18457
1365004413.3884,15077.68262
1365004413.40331,15043.29688
1365004413.40337,15068.5332
1365004413.41841,15060.01953
1365004413.41848,15042.40527
1365004413.43339,15082.71484
1365004413.43347,15054.76758
1365004413.44736,15045.88672
1365004413.45854,15054.64551
1365004413.4586,15027.07617
1365004413.47347,15052.21387
1365004413.47364,15057.68652
1365004413.49441,15064.84473
1365004413.49447,15092.42578
1365004413.5085,15061.0459
1365004413.50866,15062.81641
1365004413.5123,15053.52148
1365004413.52743,15055.02344
1365004413.52751,15081.2373
1365004413.54338,15055.40234
1365004413.54348,15067.83691
1365004413.55838,15067.78809
1365004413.55845,15050.90723
1365004413.57338,15054.32715
1365004413.57345,14987.52344
1365004413.57731,14924.66504
1365004413.59739,14920.98828
1365004413.59745,15209.29883
1365004413.61338,15844.71094
1365004413.61345,16113.77148
1365004413.62535,15928.9707
1365004413.62541,15642.47949
1365004413.63736,15310.3418
1365004413.64441,15141.17578
1365004413.65237,15059.34766
1365004413.66937,15033.96484
1365004413.66946,15039.00977
1365004413.68239,15018.14648
1365004413.68246,15029.99512
1365004413.69635,15024.69434
1365004413.6964,15001.3877
1365004413.7074,15011.2207
1365004413.7234,14985.10547
1365004413.72346,14988.35449
1365004413.74241,14992.99609
1365004413.74266,14956.94922
1365004413.7534,14959.625
1365004413.75348,14942.04688
1365004413.75935,14927.88965
1365004413.77544,14933.80176
1365004413.77562,14894.20117
1365004413.7924,14906.07422
1365004413.7925,14877.82031
1365004413.79935,14859.08301
1365004413.80937,14876.75781
1365004413.82339,14836.39941
1365004413.82736,14856.0166
1365004413.82741,14866.17969
1365004413.84536,14872.27539
1365004413.8456,14921.97754
1365004413.8604,14924.77539
1365004413.86048,14959.01367
1365004413.87441,14977.04297
1365004413.87477,14976.0293
1365004413.88541,15011.7334
1365004413.90046,14992.2627
1365004413.90085,14990.71191
1365004413.91738,15019.31934
1365004413.9176,14994.20508
1365004413.9303,15020.88281
1365004413.93042,15006.93359
1365004413.9444,14993.48438
1365004413.94464,15026.3916
1365004413.95739,14995.87891
1365004413.97737,15027.06348
1365004413.97745,15017.4873
1365004413.9894,14994.91406
1365004413.98948,15028.24805
1365004414.00039,14990.96777
1365004414.00738,15011.51367
1365004414.00745,15014.00586
1365004414.01437,14983.99316
1365004414.02443,15024.48633
1365004414.03936,15002.6582
1365004414.03943,15008.58203
1365004414.05541,15033.58594
1365004414.05548,14997.47852
1365004414.07053,15035.00293
1365004414.07933,15023.19141
1365004414.07939,15004.17285
1365004414.09441,15033.69629
1365004414.09449,14998.46777
1365004414.11036,15033.21973
1365004414.11043,15037.6543
1365004414.12333,15026.44043
1365004414.12342,15069.6084
1365004414.13442,15015.77734
1365004414.14943,15020.93164
1365004414.1495,15026.78223
1365004414.17036,15007.77637
1365004414.17043,15052.11621
1365004414.17937,15017.38965
1365004414.17944,15025.01172
1365004414.19434,15047.13281
1365004414.1944,15013.39453
1365004414.20435,15028.85938
1365004414.21941,14963.10547
1365004414.2195,14896.99805
1365004414.23344,14921.44043
1365004414.23355,15155.67578
1365004414.24843,15718.9209
1365004414.2485,15956.30762
1365004414.25936,15800.60254
1365004414.27437,15605.7002
1365004414.27444,15306.82324
1365004414.28937,15131.85645
1365004414.28943,15042.39355
1365004414.30441,14993.60645
1365004414.30451,15019.7959
1365004414.31841,14976.39551
1365004414.32733,14982.34473
1365004414.32739,14992.00684
1365004414.33443,14952.90625
1365004414.34439,14992.33594
1365004414.35929,14967.47852
1365004414.35934,14947.48242
1365004414.37336,14976.53027
1365004414.37344,14932.53125
1365004414.38339,14955.81348
1365004414.3994,14940.61816
1365004414.39965,14901.51758
1365004414.41543,14934.85254
1365004414.41551,14889.85254
1365004414.43037,14895.09277
1365004414.43046,14893.38281
1365004414.44545,14852.04688
1365004414.44933,14882.36426
1365004414.44938,14849.93359
1365004414.46839,14863.22363
1365004414.46846,14891.91699
1365004414.4904,14873.875
1365004414.49046,14932.36035
1365004414.49937,14931.33496
1365004414.49944,14940.8252
1365004414.50536,14985.45898
1365004414.51441,14953.33398
1365004414.52746,14991.56641
1365004414.54235,14993.27734
1365004414.54242,14981.26953
1365004414.55757,15024.79199
1365004414.55764,14985.77734
1365004414.56835,15010.08496
1365004414.57436,15022.18945
1365004414.57458,14987.96289
1365004414.59266,15023.42383
1365004414.59322,14984.60449
1365004414.60838,14990.90723
1365004414.6086,15011.70898
1365004414.62328,14977.55664
1365004414.6234,15014.90918
1365004414.6295,14993.92383
1365004414.64742,14991.84766
1365004414.64749,15033.81836
1365004414.66441,14989.50293
1365004414.66451,15016.88867
1365004414.6824,15009.22949
1365004414.68247,14992.08008
1365004414.68835,15029.51855
1365004414.7005,14992.05566
1365004414.70069,15013.3584
1365004414.71743,15012.30762
1365004414.71751,14975.47949
1365004414.73236,15017.80469
1365004414.73243,14977.97168
1365004414.74544,15001.42383
1365004414.74551,15046.72949
1365004414.75733,15022.4834
1365004414.77239,15054.49805
1365004414.77246,15020.65039
1365004414.78734,15003.14648
1365004414.78742,15037.6416
1365004414.80238,14995.5
1365004414.80245,15025.37793
1365004414.81634,15019.90527
1365004414.81639,15007.69043
1365004414.82739,15040.97656
1365004414.84251,14998.63965
1365004414.84258,14997.51562
1365004414.85745,14941.26562
1365004414.85761,14849.50586
1365004414.87054,14949.05859
1365004414.88038,15444.16895
1365004414.8806,16119.10938
1365004414.89739,16172.02441
1365004414.8976,15863.22949
1365004414.91742,15546.01758
1365004414.9175,15220.58594
1365004414.93239,15055.45117
1365004414.93246,15044.93457
1365004414.9424,14985.33691
1365004414.9426,15008.47266
1365004414.94836,14994.54688
1365004414.96541,14976.24902
1365004414.96551,15009.15625
1365004414.98065,14960.23535
1365004414.9808,14974.77148
1365004414.99535,14976.00488
1365004414.99542,14947.54395
1365004415.00537,14970.92383
1365004415.02443,14930.04004
1365004415.02461,14931.56641
1365004415.03941,14936.94141
1365004415.03948,14885.8584
1365004415.05034,14906.19629
1365004415.0504,14863.16309
1365004415.06438,14844.31543
1365004415.06448,14854.66113
1365004415.07544,14800.60938
1365004415.09041,14832.90625
1365004415.09051,14815.71973
1365004415.10544,14809.62402
1365004415.10551,14868.52539
1365004415.11833,14854.37988
1365004415.12937,14908.93262
1365004415.12944,14937.18555
1365004415.13841,14935.13379
1365004415.14836,14996.12305
1365004415.16737,14964.49805
1365004415.16744,14987.15723
1365004415.17937,15012.99219
1365004415.17945,14987.25488
1365004415.19043,15023.99805
1365004415.19752,15001.85156
1365004415.19772,14998.74902
1365004415.21439,15024.88965
1365004415.21446,14986.91309
1365004415.22936,15016.82715
1365004415.22944,15002.34082
1365004415.24738,14987.05957
1365004415.24744,15021.4082
1365004415.2503,14980.64648
1365004415.26943,15002.49902
1365004415.2695,15008.50879
1365004415.28439,14986.58301
1365004415.28448,15025.65918
1365004415.2994,14984.5918
1365004415.29947,14997.125
1365004415.31339,15013.68848
1365004415.32438,14978.59473
1365004415.32445,15020.82129
1365004415.34043,14994.12012
1365004415.34053,14994.12012
1365004415.35438,15026.26953
1365004415.35445,14979.99902
1365004415.37043,14998.67578
1365004415.3705,14985.54492
1365004415.37951,14967.32031
1365004415.39451,15011.45312
1365004415.39479,14993.48438
1365004415.40954,15024.12012
1365004415.40961,15025.30469
1365004415.42536,14994.30273
1365004415.42543,15027.08789
1365004415.43843,14991.27344
1365004415.44842,14996.74609
1365004415.44858,15016.05762
1365004415.45531,14981.96582
1365004415.46439,15018.03711
1365004415.47941,14990.47949
1365004415.47949,14983.29688
1365004415.49541,14988.73242
1365004415.49548,14880.74023
1365004415.49835,14841.49316
1365004415.51844,14894.33496
1365004415.51862,15436.2168
1365004415.53438,16153.39648
1365004415.53445,16130.43262
1365004415.57743,15852.67578
1365004415.5775,15486.70215
1365004415.58029,15150.37402
1365004415.58034,15028.93262
1365004415.58231,14947.20215
1365004415.58432,14946.18848
1365004415.5844,14945.39453
1365004415.60343,14901.10254
1365004415.6035,14933.02051
1365004415.61844,14897.46289
1365004415.61861,14896.80273
1365004415.62836,14910.3252
1365004415.64337,14862.85742
1365004415.64344,14889.90137
1365004415.65843,14869.16016
1365004415.65854,14843.94824
1365004415.67338,14870.90723
1365004415.67347,14814.73047
1365004415.68736,14820.89844
1365004415.68743,14800.35352
1365004415.69842,14759.89746
1365004415.71341,14777.65723
1365004415.71358,14731.13086
1365004415.72837,14732.53516
1365004415.72844,14732.71875
1365004415.73837,14695.5
1365004415.73845,14741.23242
1365004415.75242,14734.19629
1365004415.77034,14772.4541
1365004415.77041,14826.66406
1365004415.78236,14813.20312
1365004415.78245,14869.14844
1365004415.7984,14867.75586
1365004415.79847,14872.48242
1365004415.81243,14905.16992
1365004415.8126,14868.69629
1365004415.82239,14902.20215
1365004415.83841,14905.3291
1365004415.83848,14882.08398
1365004415.87953,14915.14941
1365004415.87971,14873.79004
1365004415.88344,14888.26465
1365004415.88546,14900.27148
1365004415.88562,14867.02246
1365004415.89741,14904.99902
1365004415.8975,14873.30078
1365004415.90736,14871.24902
1365004415.90744,14890.25586
1365004415.92237,14851.75391
1365004415.92244,14893.65137
1365004415.93641,14870.90723
1365004415.93648,14857.56836
1365004415.94749,14893.79785
1365004415.96239,14848.41895
1365004415.96262,14884.08691
1365004415.97732,14880.23926
1365004415.97752,14855.93164
1365004415.98937,14896.02148
1365004416.00036,14856.48145
1365004416.00045,14866.65625
1365004416.01738,14884.35547
1365004416.01745,14849.51855
1365004416.03341,14872.08008
1365004416.03348,14835.10449
1365004416.04845,14836.31445
1365004416.04853,14858.28906
1365004416.06039,14842.69043
1365004416.07032,14891.37891
1365004416.07037,14876.72168
1365004416.08537,14858.37402
1365004416.08555,14887.48242
1365004416.10343,14851.09473
1365004416.1035,14872.67773
1365004416.11838,14872.45801
1365004416.11845,14855.28418
1365004416.12234,14890.10938
1365004416.14036,14848.11426
1365004416.14051,14863.6875
1365004416.15538,14869.49023
1365004416.15561,14786.15918
1365004416.17037,14748.39062
1365004416.17045,14686.75391
1365004416.18438,15020.72363
1365004416.18463,15779.4707
1365004416.19538,16083.6123
1365004416.21036,15878.47363
1365004416.21063,15518.77832
1365004416.22558,15146.24512
1365004416.22616,14957.20605
1365004416.24056,14828.42285
1365004416.24841,14842.69043
1365004416.24859,14829.30273
1365004416.25738,14794.66113
1365004416.26534,14824.63672
1365004416.28038,14778.53711
1365004416.28059,14791.29004
1365004416.29545,14799.79102
1365004416.29552,14761.70508
1365004416.30838,14791.27734
1365004416.32038,14754.6084
1365004416.32045,14750.125
1365004416.34033,14758.76074
1365004416.34048,14716.26465
1365004416.35335,14724.08301
1365004416.35358,14687.23047
1365004416.36536,14662.31152
1365004416.37228,14674.85645
1365004416.37239,14611.27734
1365004416.38934,14631.08984
1365004416.38954,14611.85156
1365004416.4044,14588.64258
1365004416.40462,14629.18457
1365004416.41937,14598.8916
1365004416.41944,14644.31836
1365004416.43341,14686.06934
1365004416.44447,14681.59863
1365004416.44465,14740.41406
1365004416.45936,14732.86523
1365004416.45966,14751.34668
1365004416.47436,14783.92383
1365004416.47445,14755.08398
1365004416.48838,14793.45215
1365004416.48845,14772.69824
1365004416.49936,14773.91992
1365004416.51539,14804.06641
1365004416.51547,14759.68945
1365004416.53042,14786.26953
1365004416.53049,14783.76562
1365004416.54442,14765.14941
1365004416.54464,14800.05957
1365004416.55941,14769.7793
1365004416.56536,14789.0791
1365004416.56541,14785.1582
1365004416.57447,14751.88379
1365004416.58436,14787.69824
1365004416.59941,14752.51953
1365004416.59948,14761.2168
1365004416.61637,14784.91309
1365004416.61662,14747.40137
1365004416.61932,14784.51074
1365004416.63834,14759.95801
1365004416.63841,14748.47656
1365004416.65338,14787.58887
1365004416.65345,14750.95605
1365004416.66842,14770.69531
1365004416.66848,14756.63574
1365004416.68237,14748.94043
1365004416.69349,14784.5957
1365004416.69356,14746.375
1365004416.70843,14768.69238
1365004416.70851,14772.74707
1365004416.72343,14738.37402
1365004416.72351,14773.65137
1365004416.73746,14734.18457
1365004416.73763,14745.66699
1365004416.74838,14790.32422
1365004416.76344,14762.85352
1365004416.76351,14799.4248
1365004416.77837,14772.2832
1365004416.77844,14762.23047
1365004416.79443,14788.73633
1365004416.7945,14747.52344
1365004416.80736,14772.44238
1365004416.81737,14771.12305
1365004416.81744,14750.04004
1365004416.82437,14784.44922
1365004416.8343,14747.12012
1365004416.8494,14750.55273
1365004416.84946,14698.61426
1365004416.86237,14606.85547
1365004416.86245,14696.86816
1365004416.87237,15176.45312
1365004416.88742,15872.86719
1365004416.88749,15959.50781
1365004416.90344,15622.38574
1365004416.90361,15288.25684
1365004416.91835,14968.39453
1365004416.91842,14801.26953
1365004416.93146,14783.22754
1365004416.93162,14728.29688
1365004416.94247,14740.23047
1365004416.95738,14722.11621
1365004416.95745,14693.97266
1365004416.97241,14728.77344
1365004416.97251,14684.81152
1365004416.9854,14696.40332
1365004416.98547,14699.89746
1365004416.99736,14666.67188
1365004417.01239,14694.68164
1365004417.01246,14659.19629
1365004417.03231,14653.77344
1365004417.03237,14659.79492
1365004417.05041,14616.95703
1365004417.05048,14629.29395
1365004417.05435,14589.57129
1365004417.06529,14568.79297
1365004417.06535,14579.68945
1365004417.08241,14523.68359
1365004417.08248,14555.08789
1365004417.09739,14538.30469
1365004417.09747,14530.92676
1365004417.10938,14585.30859
1365004417.12038,14578.98047
1365004417.12045,14632.8125
1365004417.12833,14663.50879
1365004417.14217,14661.08984
1365004417.15364,14722.38477
1365004417.15372,14703.42676
1365004417.17238,14727.02637
1365004417.17261,14750.47949
1365004417.18344,14719.29492
1365004417.18351,14759.06641
1365004417.18737,14738.28906
1365004417.20535,14735.45508
1365004417.20552,14767.72656
1365004417.2204,14729.4082
1365004417.22047,14755.15723
1365004417.23533,14750.88281
1365004417.2355,14732.52344
1365004417.24538,14767.38477
1365004417.26332,14727.30762
1365004417.26347,14760.15332
1365004417.28034,14765.58887
1365004417.28056,14731.00879
1365004417.29441,14768.72852
1365004417.29448,14734.24512
1365004417.30535,14749.33105
1365004417.31539,14774.49414
1365004417.31546,14742.89355
1365004417.33032,14783.24023
1365004417.33037,14759.86035
1365004417.34538,14762.42578
1365004417.34545,14792.69434
1365004417.36047,14755.09668
1365004417.3684,14792.6582
1365004417.3685,14779.27051
1365004417.37736,14768.31348
1365004417.38541,14803.54102
1365004417.4024,14766.72559
1365004417.40251,14790.15332
1365004417.41543,14788.87109
1365004417.41551,14754.9375
1365004417.42936,14791.63184
1365004417.43938,14753.3252
1365004417.43959,14786.64844
1365004417.45443,14828.41113
1365004417.45449,14798.54492
1365004417.46938,14834.84863
1365004417.4696,14799.71777
1365004417.48442,14802.55176
1365004417.4943,14834.05469
1365004417.49443,14795.73633
1365004417.5095,14828.89941
1365004417.5097,14814.46191
1365004417.52437,14807.76758
1365004417.52444,14847.74707
1365004417.53939,14801.34277
1365004417.53947,14790.41016
1365004417.5534,14724.10742
1365004417.56445,14652.53906
1365004417.56462,14871.33496
1365004417.57935,15467.25586
1365004417.57943,15996.95898
1365004417.59545,15896.68652
1365004417.59562,15551.11133
1365004417.60836,15238.66406
1365004417.61844,14972.18164
1365004417.61851,14854.55078
1365004417.63445,14854.88086
1365004417.63462,14800.85352
1365004417.64935,14821.7168
1365004417.64942,14804.99512
1365004417.66437,14795.22266
1365004417.66459,14834.04199
1365004417.67841,14787.35645
1365004417.68735,14808.21973
1365004417.6874,14800.59766
1365004417.69545,14768.89941
1365004417.70451,14801.72168
1365004417.71941,14762.25488
1365004417.71948,14763.59863
1365004417.7364,14762.59668
1365004417.73648,14719.85645
1365004417.73931,14743.5166
1365004417.75847,14693.85059
1365004417.75865,14689.41699
1365004417.7744,14697.83301
1365004417.77447,14649.20508
1365004417.78839,14671.9248
1365004417.78847,14661.0293
1365004417.80237,14655.56836
1365004417.8134,14706.51758
1365004417.81347,14696.11035
1365004417.82844,14751.07812
1365004417.82861,14781.24902
1365004417.84337,14776.60742
1365004417.84344,14834.06641
1365004417.85731,14821.72949
1365004417.85737,14854.35547
1365004417.86835,14876.92871
1365004417.8834,14847.30762
1365004417.88347,14883.81836
1365004417.89936,14857.25098
1365004417.89944,14857.12891
1365004417.91342,14880.01953
1365004417.91349,14836.27734
1365004417.92744,14876.97754
1365004417.92761,14863.61426
1365004417.93835,14857.93457
1365004417.95442,14894.05469
1365004417.95449,14857.88574
1365004417.97337,14880.47168
1365004417.97344,14886.17578
1365004417.97934,14866.50977
1365004417.97939,14903.47266
1365004417.99245,14863.71191
1365004418.00842,14883.58594
1365004418.00849,14898.3418
1365004418.02329,14867.25488
1365004418.02335,14912.59668
1365004418.03937,14880.77637
1365004418.03944,14889.5957
1365004418.05139,14923.08984
1365004418.05148,14878.77344
1365004418.06245,14908.54102
1365004418.07737,14887.15332
1365004418.07744,14876.67285
1365004418.09344,14911.48535
1365004418.09361,14867.03516
1365004418.09741,14892.08789
1365004418.10536,14884.00195
1365004418.1174,14879.98242
1365004418.13237,14944.75879
1365004418.13244,14914.08691
1365004418.14842,14931.39551
1365004418.14849,14925.95996
1365004418.16037,14889.7666
1365004418.16044,14928.43945
1365004418.17839,14897.52344
1365004418.17846,14909.13965
1365004418.18433,14937.55176
1365004418.20543,14886.56641
1365004418.2055,14924.49414
1365004418.22232,14903.64355
1365004418.22238,14870.87012
1365004418.23337,14831.03711
1365004418.23344,14746.68066
1365004418.23733,14892.49121
1365004418.25533,15383.79004
1365004418.25539,15831.83691
1365004418.27244,15858.16016
1365004418.27251,15581.80762
1365004418.28738,15320.44336
1365004418.28748,15109.91797
1365004418.30143,14939.70215
1365004418.3015,14929.03809
1365004418.31044,14873.04492
1365004418.33339,14872.17773
1365004418.33346,14900.40625
1365004418.34534,14853.96484
1365004418.34543,14881.91309
1365004418.3574,14860.35352
1365004418.35756,14847.38086
1365004418.36032,14876.07422
1365004418.36943,14822.59668
1365004418.38034,14848.37012
1365004418.39532,14831.69727
1365004418.39538,14804.06641
1365004418.40941,14830.56055
1365004418.40948,14784.3877
1365004418.42737,14793.28027
1365004418.42744,14797.00586
1365004418.43439,14752.77539
1365004418.45041,14781.88379
1365004418.45047,14743.28516
1365004418.46438,14750.55273
1365004418.46445,14772.80859
1365004418.48042,14733.80566
1365004418.48846,14786.97754
1365004418.48864,14790.87402
1365004418.49839,14807.81641
1365004418.50537,14858.14258
1365004418.51234,14832.30762
1365004418.52246,14878.1748
1365004418.53739,14883.47656
1365004418.5376,14875.13379
1365004418.54834,14919.25391
1365004418.55935,14879.38379
1365004418.55953,14902.61719
1365004418.57537,14919.82812
1365004418.57545,14887.42188
1365004418.59039,14927.19336
1365004418.59046,14901.16309
1365004418.60342,14909.90918
1365004418.6035,14924.71387
1365004418.61437,14887.65332
1365004418.62937,14928.47656
1365004418.62945,14908.33398
1365004418.64441,14904.54688
1365004418.64449,14934.81543
1365004418.68744,14896.15527
1365004418.68754,14931.33496
1365004418.68935,14926.41211
1365004418.69234,14906.58691
1365004418.69243,14950.43848
1365004418.69333,14909.58008
1365004418.69934,14931.2002
1365004418.71444,14938.41895
1365004418.71456,14912.91406
1365004418.72837,14952.80859
1365004418.72844,14920.89062
1365004418.73941,14929.5752
1365004418.75446,14949.81543
1365004418.75475,14907.88184
1365004418.7694,14927.25488
1365004418.76947,14912.32812
1365004418.78444,14905.83008
1365004418.78499,14940.25195
1365004418.79738,14922.30762
1365004418.80735,14960.39453
1365004418.80744,14959.57617
1365004418.81532,14926.80273
1365004418.82438,14956.46094
1365004418.83936,14919.47363
1365004418.83959,14944.37988
1365004418.85536,14956.63184
1365004418.85543,14928.14648
1365004418.86037,14968.68848
1365004418.87837,14932.48242
1365004418.8786,14946.86035
1365004418.89439,14939.77539
1365004418.89447,14830.34082
1365004418.93548,14814.08301
1365004418.93556,14906.26953
1365004418.93836,15489.12012
1365004418.93844,16123.98242
1365004418.94036,16029.87793
1365004418.94842,15760.41504
1365004418.94858,15389.83691
1365004418.96339,15102.71094
1365004418.96347,15000.4834
1365004418.97739,14925.91113
1365004418.97747,14927.56055
1365004418.98838,14923.11426
1365004419.00339,14891.06152
1365004419.00345,14922.7959
1365004419.01737,14881.69238
1365004419.01743,14892.1123
1365004419.03243,14907.94336
1365004419.0325,14865.72754
1365004419.04732,14894.51855
1365004419.04738,14862.36914
1365004419.05839,14846.2207
1365004419.07337,14863.49219
1365004419.07345,14811.9209
1365004419.08936,14828.94824
1365004419.08943,14800.71973
1365004419.10042,14770.6582
1365004419.1005,14789.73828
1365004419.11337,14733.87891
1365004419.12739,14745.10449
1365004419.12746,14745.17773
1365004419.14434,14719.49023
1365004419.1444,14765.16211
1365004419.16343,14751.17578
1365004419.16351,14794.91797
1365004419.17531,14843.33789
1365004419.17539,14836.82715
1365004419.18238,14894.73828
1365004419.1974,14892.14844
1365004419.19747,14907.85742
1365004419.21232,14942.97559
1365004419.21238,14905.35352
1365004419.22536,14943.46387
1365004419.23436,14933.45996
1365004419.23442,14919.73047
1365004419.24329,14952.7959
1365004419.25236,14909.51855
1365004419.26742,14929.18457
1365004419.26749,14930.52832
1365004419.28377,14905.10938
1365004419.28387,14941.82715
1365004419.29641,14904.22949
1365004419.29648,14913.7207
1365004419.30746,14930.35742
1365004419.32265,14893.37012
1365004419.32285,14935.64648
1365004419.32932,14916.75
1365004419.33942,14913.43945
1365004419.35238,14944.85645
1365004419.35837,14909.78711
1365004419.35846,14941.33887
1365004419.36533,14930.55273
1365004419.40344,14908.39453
1365004419.40534,14946.46875
1365004419.40539,14909.98242
1365004419.41638,14935.92773
1365004419.41654,14942.23047
1365004419.41931,14917.83691
1365004419.4304,14948.375
1365004419.43049,14902.17773
1365004419.44533,14907.25879
1365004419.44552,14927.08398
1365004419.46037,14885.5166
1365004419.4606,14945.16211
1365004419.47549,14935.25586
1365004419.47588,14939.83594
1365004419.48543,14966.61133
1365004419.5004,14903.5459
1365004419.50046,14933.375
1365004419.51537,14926.09473
1365004419.5156,14914.42871
1365004419.53041,14949.9873
1365004419.53048,14904.93848
1365004419.54446,14932.99609
1365004419.54503,14935.83008
1365004419.55538,14901.66406
1365004419.57037,14896.68066
1365004419.57043,14783.52051
1365004419.58536,14767.9834
1365004419.58543,15064.46582
1365004419.6084,15734.97168
1365004419.61031,16178.19336
1365004419.6106,15936.51953
1365004419.62438,15604.625
1365004419.62444,15274.18555
1365004419.63929,14999.48242
1365004419.63935,14945.71191
1365004419.65437,14905.92773
1365004419.65444,14879.60449
1365004419.66838,14910.50781
1365004419.6794,14854.37988
1365004419.6795,14873.30078
1365004419.69545,14866.19238
1365004419.69554,14840.2959
1365004419.70935,14871.27344
1365004419.70943,14823.94043
1365004419.72335,14825.93164
1365004419.72342,14832.78418
1365004419.73334,14786.0498
1365004419.75038,14803.46777
1365004419.75046,14764.58789
1365004419.76341,14750.18652
1365004419.7635,14750.87012
1365004419.77938,14690.00293
1365004419.77945,14707.2627
1365004419.79343,14680.16992
1365004419.7935,14655.32422
1365004419.80432,14681.17188
1365004419.81935,14645.50391
1365004419.81943,14682.40527
1365004419.8344,14708.78906
1365004419.83449,14716.8877
1365004419.85058,14779.08691
1365004419.85077,14766.3584
1365004419.85935,14802.29492
1365004419.86741,14833.45605
1365004419.87439,14812.16504
1365004419.89043,14856.33496
1365004419.8905,14836.00879
1365004419.90331,14835.83789
1365004419.90342,14860.07227
1365004419.91754,14819.11523
1365004419.92738,14850.3252
1365004419.92747,14834.05469
1365004419.93537,14814.90137
1365004419.94461,14847.38086
1365004419.95938,14804.49414
1365004419.95954,14821.26562
1365004419.97335,14816.57422
1365004419.97344,14796.68848
1365004419.98338,14831.78223
1365004419.99936,14793.28027
1365004419.99942,14813.30078
1365004420.01438,14828.14258
1365004420.01445,14789.44531
1365004420.02943,14827.65332
1365004420.0295,14796.65234
1365004420.04243,14801.23242
1365004420.04262,14827.10449
1365004420.05349,14787.69824
1365004420.06834,14820.92285
1365004420.0684,14802.67383
1365004420.10833,14796.23633
1365004420.1084,14820.77637
1365004420.11132,14781.71289
1365004420.11334,14814.03418
1365004420.1134,14808.04883
1365004420.12335,14771.52539
1365004420.12342,14805.70312
1365004420.14311,14761.15527
1365004420.14318,14781.63965
1365004420.15336,14815.26758
1365004420.15343,14792.80469
1365004420.16736,14833.60254
1365004420.16742,14795.28418
1365004420.17836,14793.21973
1365004420.1934,14815.03516
1365004420.19347,14782.49512
1365004420.20839,14818.48047
1365004420.20846,14799.26562
1365004420.22041,14797.23828
1365004420.22048,14819.28613
1365004420.23234,14779.39258
1365004420.24838,14787.34375
1365004420.24845,14719.18457
1365004420.26341,14635.53613
1365004420.26348,14729.48145
1365004420.27939,15209.4209
1365004420.27946,15901.48633
1365004420.29142,15967.94824
1365004420.2915,15642.08887
1365004420.30248,15316.66895
1365004420.31839,14982.1123
1365004420.31861,14830.46289
1365004420.33433,14809.49023
1365004420.33448,14748.76953
1365004420.34541,14772.31934
1365004420.3456,14745.4834
1365004420.35743,14731.43652
1365004420.37241,14754.20508
1365004420.37265,14714.45703
1365004420.38741,14737.61719
1365004420.38748,14724.22949
1365004420.40347,14696.5625
1365004420.404,14724.57129
1365004420.41638,14677.6416
1365004420.4166,14682.99121
1365004420.4273,14684.5791
1365004420.44238,14636.44043
1365004420.44245,14653.8584
1365004420.4574,14604.11914
1365004420.45748,14591.20801
1365004420.46939,14597.38867
1365004420.48041,14548.55273
1365004420.48047,14574.63184
1365004420.48835,14555.41797
1365004420.49732,14552.86523
1365004420.51237,14599.02539
1365004420.51244,14591.11035
1365004420.52736,14648.80176
1365004420.52745,14666.48926
1365004420.54139,14670.45898
1365004420.54146,14723.81445
1365004420.55241,14695.60938
1365004420.57066,14729.38379
1365004420.57086,14741.37891
1365004420.58338,14710.57324
1365004420.58345,14755.36523
1365004420.59544,14725.15723
1365004420.59555,14732.70605
1365004420.60537,14753.97266
1365004420.62039,14707.37305
1365004420.62045,14740.96387
1365004420.6374,14722.7998
1365004420.63764,14714.48145
1365004420.6504,14740.80469
1365004420.65047,14704.29395
1365004420.66434,14736.88379
1365004420.66452,14727.41699
1365004420.67537,14715.08008
1365004420.69244,14757.625
1365004420.69251,14719.97852
1365004420.70441,14741.9043
1365004420.70475,14750.35742
1365004420.72044,14721.12695
1365004420.73032,14758.05273
1365004420.73038,14727.41699
1365004420.73836,14740.71973
1365004420.74537,14764.92969
1365004420.76036,14725.81738
1365004420.76045,14759.93359
1365004420.77439,14743.11328
1365004420.77446,14744.67676
1365004420.79037,14771.83105
1365004420.79744,14728.78516
1365004420.79761,14747.55957
1365004420.81439,14735.98047
1365004420.81447,14714.71387
1365004420.83035,14756.47656
1365004420.83044,14740.87793
1365004420.84336,14774.99512
1365004420.84342,14780.45508
1365004420.85436,14742.1123
1365004420.86937,14780.6377
1365004420.86944,14741.52539
1365004420.88942,14748.09766
1365004420.8895,14776.61914
1365004420.90454,14743.8584
1365004420.90479,14783.16699
1365004420.91436,14758.63867
1365004420.91443,14752.50684
1365004420.92441,14760.8252
1365004420.94041,14649.00977
1365004420.94048,14622.70996
1365004420.95539,14740.25586
1365004420.95547,15288.28125
1365004420.96837,15893.9375
1365004420.9774,15798.58691
1365004420.97747,15526.4248
1365004420.98536,15186.33496
1365004420.99532,14903.3623
1365004421.00936,14808.69629
1365004421.00943,14742.34375
1365004421.02742,14740.89062
1365004421.02759,14752.01855
1365004421.04141,14710.91504
1365004421.04435,14748.83008
1365004421.04441,14720.41797
1365004421.06445,14711.75781
1365004421.06457,14734.51465
1365004421.0784,14689.19629
1365004421.07847,14724.41211
1365004421.09233,14708.61816
1365004421.0924,14689.41699
1365004421.10337,14706.75
1365004421.11857,14646.40723
1365004421.11876,14654.38379
1365004421.1345,14648.60645
1365004421.13493,14602.25
1365004421.14941,14616.77441
1365004421.14948,14578.82227
1365004421.16265,14584.13574
1365004421.16301,14590.96387
1365004421.17439,14550.59277
1365004421.19246,14598.78125
1365004421.19305,14595.22656
1365004421.20436,14624.98242
1365004421.2046,14679.50977
1365004421.21741,14653.83398
1365004421.21749,14711.35449
1365004421.22841,14725.18164
1365004421.2434,14715.12891
1365004421.24362,14750.91895
1365004421.26441,14716.96094
1365004421.2648,14742.9668
1365004421.27742,14748.26855
1365004421.27749,14722.8125
1365004421.2884,14766.88379
1365004421.29447,14729.9707
1365004421.29491,14737.71484
1365004421.31344,14762.25488
1365004421.3135,14727.89355
1365004421.32841,14756.47656
1365004421.32874,14726.7207
1365004421.34035,14740.21875
1365004421.34058,14766.5791
1365004421.35237,14713.77344
1365004421.36736,14750.91895
1365004421.36744,14735.68652
1365004421.38341,14719.67285
1365004421.38348,14760.8623
1365004421.39836,14718.92773
1365004421.39843,14745.2998
1365004421.41255,14762.46191
1365004421.41262,14736.50586
1365004421.42244,14782.54395
1365004421.43736,14748.63477
1365004421.43742,14764.18457
1365004421.45235,14791.00879
1365004421.4524,14749.07422
1365004421.4654,14771.24512
1365004421.46547,14744.03027
1365004421.4774,14745.17773
1365004421.52034,14766.68848
1365004421.52041,14747.33984
1365004421.52344,14800.70703
1365004421.5236,14789.11523
1365004421.52737,14773.79785
1365004421.52744,14805.70312
1365004421.53338,14762.74316
1365004421.54537,14788.99316
1365004421.54545,14798.02051
1365004421.56239,14774.90918
1365004421.56262,14815.12109
1365004421.57442,14775.69141
1365004421.5745,14787.30762
1365004421.59037,14794.35547
1365004421.59939,14712.44141
1365004421.59946,14682.06348
1365004421.6084,14659.25781
1365004421.61736,14945.43066
1365004421.63238,15516.00586
1365004421.63245,15717.50391
1365004421.64737,15617.73242
1365004421.64744,15363.50098
1365004421.66143,15083.63086
1365004421.66153,14934.02148
1365004421.67038,14795.96777
1365004421.68741,14798.1543
1365004421.68758,14785.1582
1365004421.70038,14751.49316
1365004421.70044,14791.3877
1365004421.71543,14754.65723
1365004421.7155,14763.29297
1365004421.72741,14775.11719
1365004421.74541,14732.87793
1365004421.74551,14768.14258
1365004421.76038,14736.46875
1365004421.76046,14729.15234
1365004421.77341,14747.71875
1365004421.77347,14700.09277
1365004421.78035,14720.50391
1365004421.79453,14694.30273
1365004421.79477,14676.12695
1365004421.81041,14696.17188
1365004421.81048,14645.07617
1365004421.82439,14662.78809
1365004421.82449,14656.99805
1365004421.84044,14635.05957
1365004421.85029,14676.15137
1365004421.85034,14646.29785
1365004421.85738,14683.04004
1365004421.86538,14722.51953
1365004421.88037,14705.01465
1365004421.88042,14757.51562
1365004421.89537,14742.14844
1365004421.89544,14763.91602
1365004421.91038,14801.40332
1365004421.91732,14760.39746
1365004421.91737,14807.29102
1365004421.93538,14797.0791
1365004421.93545,14794.19727
1365004421.95033,14830.97656
1365004421.95038,14784.7666
1365004421.96539,14812.33594
1365004421.96546,14806.99805
1365004421.97237,14787.68652
1365004421.99041,14826.56641
1365004421.99065,14787.2832
1365004422.00443,14806.42383
1365004422.0045,14813.39844
1365004422.01936,14782.06738
1365004422.01964,14824.69727
1365004422.03339,14796.3584
1365004422.04437,14799.25391
1365004422.04443,14829.13184
1365004422.06239,14793.5498
1365004422.0626,14832.60059
1365004422.08234,14811.87207
1365004422.08256,14803.1748
1365004422.09339,14839.47754
1365004422.09363,14798.02051
1365004422.09935,14823.28027
1365004422.1144,14822.36426
1365004422.11464,14799.08301
1365004422.12949,14839.00098
1365004422.12973,14800.78027
1365004422.14541,14807.71875
1365004422.14548,14812.6416
1365004422.16838,14777.38867
1365004422.17036,14811.30957
1365004422.17041,14790.3125
1365004422.1894,14821.86426
1365004422.18963,14853.73242
1365004422.20741,14814.98633
1365004422.20747,14842.14062
1365004422.22538,14807.13281
1365004422.22559,14803.98145
1365004422.22832,14840.80957
1365004422.24438,14798.05664
1365004422.24456,14829.02148
1365004422.25936,14822.14453
1365004422.25952,14802.49121
1365004422.27343,14846.06152
1365004422.2735,14788.46777
1365004422.28837,14742.73535
1365004422.28859,14682.84473
1365004422.29237,14701.04492
1365004422.30738,15249.2793
1365004422.30744,15921.9707
1365004422.32454,16008.63672
1365004422.32502,15727.91113
1365004422.33741,15324.79199
1365004422.33748,15053.66797
1365004422.34846,14864.35938
1365004422.35534,14813.72852
1365004422.36337,14828.3252
1365004422.37836,14773.10156
1365004422.37845,14795.8584
1365004422.3934,14786.51367
1365004422.39347,14752.88574
1365004422.40735,14786.46484
1365004422.40741,14743.48047
1365004422.41841,14758.94434
1365004422.43839,14761.04492
1365004422.43846,14725.43848
1365004422.45351,14754.88867
1365004422.45369,14710.60938
1365004422.46336,14703.37793
1365004422.46343,14713.24805
1365004422.46937,14654.68945
1365004422.48737,14667.69824
1365004422.48744,14628.97656
1365004422.49438,14605.25488
1365004422.50335,14630.56445
1365004422.51838,14582.24219
1365004422.51856,14603.11719
1365004422.53241,14607.7959
1365004422.53248,14620.4873
1365004422.54237,14684.25
1365004422.55737,14672.81641
1365004422.55755,14719.63672
1365004422.57243,14751.33398
1365004422.57249,14743.04004
1365004422.58538,14793.3418
1365004422.58563,14768.75293
1365004422.59742,14787.13672
1365004422.6125,14814.57129
1365004422.61289,14775.84961
1365004422.62738,14809.83203
1365004422.6276,14789.98242
1365004422.6423,14781.78613
1365004422.64242,14816.57422
1365004422.65736,14771.99023
1365004422.65761,14798.3623
1365004422.6674,14791.60742
1365004422.68242,14776.00879
1365004422.68274,14810.51562
1365004422.69844,14769.00977
1365004422.69851,14792.81641
1365004422.70931,14804.03027
1365004422.71936,14776.2168
1365004422.71943,14811.59082
1365004422.72742,14778.92773
1365004422.73737,14789.72656
1365004422.75234,14812.97168
1365004422.75242,14779.88086
1365004422.7674,14825.44238
1365004422.76749,14802.71094
1365004422.77952,14798.89941
1365004422.79036,14825.04004
1365004422.79043,14787.49121
1365004422.80539,14821.13086
1365004422.80546,14815.64648
1365004422.82036,14807.85352
1365004422.82043,14839.08691
1365004422.83539,14795.04004
1365004422.83546,14807.05957
1365004422.84735,14808.87891
1365004422.86242,14777.65723
1365004422.86251,14837.62109
1365004422.87738,14818.55371
1365004422.87748,14837.87793
1365004422.89338,14854.9541
1365004422.89345,14808.76953
1365004422.90834,14839.97852
1365004422.90841,14820.34961
1365004422.91236,14822.18164
1365004422.93039,14851.66797
1365004422.93046,14809.84375
1365004422.94534,14841.04102
1365004422.94542,14830.78027
1365004422.96039,14808.23145
1365004422.97042,14808.24414
1365004422.9705,14690.43066
1365004422.97741,14673.01172
1365004422.98534,14912.02246
1365004423.00241,15591.01758
1365004423.00248,16102.48438
1365004423.01538,15877.88672
1365004423.01545,15549.85352
1365004423.02935,15199.9668
1365004423.03935,14932.0918
1365004423.03943,14867.2793
1365004423.05539,14816.15918
1365004423.05545,14806.75391
1365004423.07034,14822.04688
1365004423.07039,14767.99609
1365004423.08339,14796.84766
1365004423.08346,14784.48633
1365004423.0944,14760.32422
1365004423.11045,14792.40137
1365004423.11063,14747.37695
1365004423.12738,14761.15527
1365004423.12745,14760.03125
1365004423.14537,14721.99414
1365004423.14545,14741.50098
1365004423.14935,14688.54883
1365004423.16443,14685.44629
1365004423.1645,14688.48828
1365004423.18341,14637.42969
1365004423.18349,14656.57031
1365004423.20035,14615.6748
1365004423.20042,14607.13672
1365004423.2124,14628.02441
1365004423.21251,14592.0752
1365004423.21836,14636.09766
1365004423.22541,14649.69336
1365004423.23336,14668.95605
1365004423.24937,14737.69043
1365004423.24944,14724.05859
1365004423.26353,14761.87598
1365004423.26359,14776.61914
1365004423.27839,14769.19238
1365004423.28736,14812.54395
1365004423.28744,14782.94727
1365004423.29538,14804.7627
1365004423.30434,14827.05469
1365004423.31938,14787.34375
1365004423.31945,14829.29004
1365004423.33336,14806.70508
1365004423.33341,14806.44824
1365004423.34347,14835.77637
1365004423.35875,14791.33887
1365004423.35898,14826.38379
1365004423.37534,14807.4502
1365004423.37548,14800.46289
1365004423.39545,14835.69141
1365004423.39552,14796.49316
1365004423.40532,14818.99316
1365004423.40538,14826.71289
1365004423.41337,14802.05078
1365004423.4284,14841.72559
1365004423.42847,14804.68945
1365004423.44936,14817.77148
1365004423.44943,14836.72949
1365004423.46039,14804.61621
1365004423.46046,14843.08105
1365004423.46435,14820.95996
1365004423.4734,14825.11328
1365004423.48336,14842.22656
1365004423.49935,14806.11914
1365004423.4994,14839.03809
1365004423.51237,14824.86914
1365004423.51245,14812.12891
1365004423.5274,14850.55664
1365004423.52747,14808.87891
1365004423.53851,14828.27637
1365004423.5534,14822.31543
1365004423.55348,14794.67285
1365004423.56836,14817.1123
1365004423.56846,14810.30859
1365004423.58238,14840.47949
1365004423.58244,14853.25586
1365004423.59272,14810.05176
1365004423.60936,14839.7832
1365004423.60943,14808.23145
1365004423.62846,14816.29395
1365004423.62857,14853.06055
1365004423.63336,14811.32227
1365004423.64353,14836.29004
1365004423.65737,14822.1084
1365004423.66435,14809.42871
1365004423.66441,14831.99023
1365004423.67839,14738.59375
1365004423.67846,14689.2334
1365004423.69235,14676.30957
1365004423.69245,14991.67676
1365004423.70538,15752.80566
1365004423.70553,16037.50098
1365004423.71739,15807.65137
1365004423.73234,15474.42578
1365004423.73262,15088.65137
1365004423.74837,14918.30078
1365004423.74859,14813.52051
1365004423.76237,14799.29004
1365004423.76245,14816.15918
1365004423.77537,14767.31152
1365004423.77544,14787.02637
1365004423.78743,14770.45117
1365004423.80337,14760.58105
1365004423.80344,14796.54199
1365004423.81743,14747.41309
1365004423.8175,14762.08398
1365004423.83335,14757.06348
1365004423.83938,14722.91016
1365004423.83945,14751.70117
1365004423.84839,14701.93652
1365004423.85737,14704.49023
1365004423.87257,14703.42676
1365004423.87277,14649.53418
1365004423.88743,14673.0
1365004423.8875,14627.80371
1365004423.90037,14613.01172
1365004423.91036,14628.5
1365004423.91044,14588.38672
1365004423.92738,14631.93262
1365004423.92744,14629.53906
1365004423.94236,14646.40723
1365004423.94243,14705.23535
1365004423.95736,14695.26758
1365004423.96037,14745.8623
1365004423.96045,14770.29199
1365004423.98056,14761.94922
1365004423.98062,14810.65039
1365004423.99733,14774.10352
1365004423.99739,14801.11035
1365004424.01038,14822.1084
1365004424.01045,14786.18359
1365004424.02437,14831.37891
1365004424.03537,14809.08691
1365004424.03544,14812.72656
1365004424.05041,14831.45215
1365004424.05049,14785.09668
1365004424.06738,14820.2998
1365004424.06745,14804.7627
1365004424.08142,14797.95898
1365004424.08149,14826.79883
1365004424.09035,14787.66211
1365004424.10734,14821.44824
1365004424.10741,14823.94043
1365004424.12244,14808.37891
1365004424.12251,14843.08105
1365004424.1354,14808.7207
1365004424.1355,14828.55762
1365004424.1494,14840.34473
1365004424.15939,14811.37109
1365004424.15948,14845.20703
1365004424.17738,14822.54785
1365004424.17745,14828.34961
1365004424.19432,14854.55078
1365004424.19438,14817.57617
1365004424.20535,14854.14844
1365004424.20541,14833.94434
1365004424.20936,14820.21484
1365004424.22937,14863.41895
1365004424.22947,14817.16113
1365004424.24538,14829.87695
1365004424.24546,14825.14941
1365004424.26032,14802.94238
1365004424.26038,14851.96191
1365004424.27441,14826.24902
1365004424.27448,14852.58496
1365004424.28436,14865.78906
1365004424.30055,14825.00293
1365004424.30074,14852.84082
1365004424.31941,14825.87012
1365004424.31948,14841.35938
1365004424.32644,14864.34766
1365004424.33938,14821.02051
1365004424.33955,14855.38184
1365004424.3544,14830.71973
1365004424.35446,14820.56934
1365004424.36937,14821.26562
1365004424.36958,14711.84375
1365004424.3834,14697.90625
1365004424.38347,14863.99316
1365004424.3984,15407.26758
1365004424.40837,15891.29883
1365004424.40859,15756.38477
1365004424.42431,15518.3877
1365004424.42445,15230.91992
1365004424.43936,14982.49121
1365004424.4396,14891.69727
1365004424.45339,14823.23145
1365004424.45347,14822.66992
1365004424.46344,14837.16895
1365004424.47838,14792.80469
1365004424.47845,14823.63477
1365004424.49444,14800.73145
1365004424.49451,14791.61914
1365004424.50941,14810.07617
1365004424.50948,14762.78027
1365004424.52236,14791.3877
1365004424.52241,14784.27832
1365004424.53359,14751.50586
1365004424.55442,14777.03516
1365004424.55449,14729.48145
1365004424.56738,14736.10254
1365004424.56745,14738.93652
1365004424.57843,14692.05469
1365004424.58837,14718.19531
1365004424.58845,14667.69824
1365004424.59539,14670.01953
1365004424.60438,14700.15332
1365004424.61935,14660.90723
1365004424.6194,14699.29883
1365004424.63339,14700.42188
1365004424.63346,14719.88086
1365004424.64755,14772.22168
1365004424.64761,14748.43945
1365004424.65835,14797.78809
1365004424.67337,14802.78418
1365004424.67344,14785.92773
1365004424.68849,14832.61328
1365004424.68869,14798.22754
1365004424.70238,14821.75391
1365004424.70245,14833.79785
1365004424.7124,14810.21094
1365004424.73035,14843.28906
1365004424.73042,14805.66699
1365004424.74841,14805.72754
1365004424.7485,14823.74512
1365004424.76245,14782.32422
1365004424.76263,14820.17773
1365004424.77639,14798.92383
1365004424.77645,14793.06055
1365004424.78336,14822.38867
1365004424.80337,14775.6543
1365004424.80344,14816.97754
1365004424.81536,14811.28516
1365004424.81542,14796.85938
1365004424.82741,14831.23242
1365004424.83739,14796.37109
1365004424.83746,14817.61328
1365004424.85236,14830.29199
1365004424.85241,14800.5
1365004424.86738,14844.03418
1365004424.86745,14807.96289
1365004424.88244,14819.71387
1365004424.88251,14840.38184
1365004424.89537,14800.37793
1365004424.89544,14840.33301
1365004424.90742,14816.87988
1365004424.92339,14815.68262
1365004424.92349,14840.76074
1365004424.93741,14787.13672
1365004424.93748,14817.22168
1365004424.95131,14806.43652
1365004424.96039,14800.58496
1365004424.96046,14856.88379
1365004424.96736,14821.9248
1365004424.97737,14845.3291
1365004424.9934,14844.27832
1365004424.99347,14802.83301
1365004425.03743,14842.95898
1365004425.03751,14813.80176
1365004425.04036,14824.84473
1365004425.04335,14844.57129
1365004425.04344,14808.37891
1365004425.04735,14845.75586
1365004425.04744,14818.7002
1365004425.06038,14795.43066
1365004425.06045,14764.16016
1365004425.07445,14657.46191
1365004425.08547,14767.59277
1365004425.08588,15287.07227
1365004425.10039,15901.95117
1365004425.10056,15954.15723
1365004425.11541,15629.20215
1365004425.11548,15308.33789
1365004425.13034,15031.79102
1365004425.13058,14849.94629
1365004425.1444,14851.05762
1365004425.14446,14802.19727
1365004425.15534,14797.51953
1365004425.17039,14811.4082
1365004425.17046,14768.56934
1365004425.18548,14800.69531
1365004425.18587,14769.6084
1365004425.20038,14756.48926
1365004425.20055,14781.62793
1365004425.21042,14733.5498
1365004425.22535,14751.9209
1365004425.22554,14734.2334
1365004425.24239,14709.19238
1365004425.24246,14732.2666
1365004425.25955,14675.99219
1365004425.2601,14681.94141
1365004425.27036,14666.46484
1365004425.27433,14622.4541
1365004425.27449,14644.29395
1365004425.2944,14597.48633
1365004425.29472,14602.76367
1365004425.3104,14611.61914
1365004425.31048,14583.96484
1365004425.32637,14639.60352
1365004425.32659,14650.54883
1365004425.33236,14682.95508
1365004425.34934,14737.20117
1365004425.34956,14720.22266
1365004425.36452,14769.70605
1365004425.36476,14767.97168
1365004425.37934,14766.50586
1365004425.3794,14811.82324
1365004425.39339,14771.94141
1365004425.40441,14793.84277
1365004425.40448,14795.82129
1365004425.41948,14770.19434
1365004425.41991,14804.26172
1365004425.4344,14771.80664
1365004425.43462,14784.87695
1365004425.44835,14804.25
1365004425.44857,14765.05176
1365004425.45938,14807.1084
1365004425.47539,14784.0459
1365004425.47545,14788.76074
1365004425.49538,14812.60449
1365004425.49562,14773.66309
1365004425.50435,14809.33105
1365004425.50442,14803.83398
1365004425.51746,14795.17383
1365004425.52837,14829.7793
1365004425.52855,14790.17773
1365004425.53539,14810.87012
1365004425.54437,14822.19336
1365004425.55938,14795.05176
1365004425.55963,14839.89355
1365004425.57235,14799.24121
1365004425.57243,14819.28613
1365004425.5844,14835.49609
1365004425.59941,14793.76953
1365004425.59948,14823.80566
1365004425.6143,14805.33691
1365004425.61443,14808.12207
1365004425.62936,14825.8457
1365004425.6296,14778.65918
1365004425.64335,14808.69629
1365004425.64344,14806.46094
1365004425.6534,14816.34277
1365004425.6694,14859.83984
1365004425.66947,14819.00586
1365004425.68339,14841.00488
1365004425.6835,14840.94336
1365004425.69741,14816.24512
1365004425.69748,14864.64062
1365004425.70736,14827.18945
1365004425.72437,14840.08887
1365004425.72444,14854.62402
1365004425.74342,14827.88574
1365004425.7435,14855.79688
1365004425.75447,14810.57715
1365004425.75465,14749.35547
1365004425.76737,14714.60352
1365004425.7773,14761.24121
1365004425.77736,15345.58203
1365004425.79336,15982.89941
1365004425.79343,15975.27734
1365004425.80836,15720.11816
1365004425.80841,15308.59473
1365004425.82036,15037.59277
1365004425.83242,14891.84375
1365004425.83249,14834.09082
1365004425.84838,14857.88574
1365004425.84849,14801.06152
1365004425.86337,14815.60938
1365004425.86344,14826.84766
1365004425.87836,14784.54688
1365004425.87845,14817.27051
1365004425.89239,14787.02637
1365004425.90242,14775.83789
1365004425.90251,14797.40918
1365004425.91738,14747.13281
1365004425.91744,14778.24414
1365004425.93245,14750.27148
1365004425.93252,14730.36133
1365004425.94741,14743.15039
1365004425.94751,14684.56738
1365004425.95737,14687.16895
1365004425.97242,14672.55957
1365004425.9725,14636.36719
1365004425.98738,14664.11914
1365004425.98745,14622.68555
1365004426.00851,14634.43652
1365004426.0087,14653.83398
1365004426.01938,14639.65234
1365004426.02334,14700.20215
1365004426.0234,14709.83984
1365004426.04248,14744.18848
1365004426.04266,14788.5293
1365004426.05737,14764.58789
1365004426.05744,14813.37402
1365004426.07035,14807.80469
1365004426.08044,14808.39062
1365004426.08082,14844.73047
1365004426.08837,14809.86914
1365004426.09739,14841.53027
1365004426.13641,14839.88086
1365004426.13648,14825.00293
1365004426.13835,14859.81543
1365004426.1384,14820.56934
1365004426.1403,14828.7041
1365004426.14035,14839.12402
1365004426.15038,14813.82617
1365004426.1654,14847.60059
1365004426.16546,14820.08008
1365004426.18534,14825.38184
1365004426.18541,14844.82812
1365004426.19343,14811.63965
1365004426.19351,14841.99414
1365004426.23244,14825.55273
1365004426.23435,14822.96289
1365004426.2344,14851.99805
1365004426.23735,14818.46777
1365004426.2374,14846.45215
1365004426.25237,14848.24805
1365004426.25244,14827.28711
1365004426.26437,14865.75195
1365004426.26443,14830.34082
1365004426.27537,14846.89258
1365004426.29238,14863.23633
1365004426.29245,14831.44043
1365004426.30731,14861.92871
1365004426.30737,14835.6543
1365004426.32038,14842.48242
1365004426.32838,14854.53906
1365004426.32844,14808.52539
1365004426.33735,14837.6582
1365004426.34538,14827.40918
1365004426.36041,14842.70215
1365004426.36048,14883.45215
1365004426.3753,14842.6416
1365004426.37536,14858.97266
1365004426.38844,14853.08496
1365004426.39937,14828.81445
1365004426.39945,14870.19824
1365004426.40743,14840.63867
1365004426.41836,14855.36914
1365004426.43041,14865.37402
1365004426.43048,14831.00098
1365004426.44637,14864.60449
1365004426.44644,14818.40723
1365004426.45438,14760.20215
1365004426.46935,14718.43945
1365004426.46941,14734.01367
1365004426.48535,15268.13867
1365004426.48542,15915.60742
1365004426.49939,15969.16992
1365004426.49947,15711.12793
1365004426.51352,15320.5293
1365004426.52436,15058.89551
1365004426.52443,14895.45898
1365004426.53935,14832.97949
1365004426.53944,14855.18652
1365004426.55437,14801.84375
1365004426.55444,14813.39844
1365004426.56837,14823.85449
1365004426.56843,14791.83887
1365004426.5795,14823.42773
1365004426.59439,14781.79883
1365004426.59446,14773.49219
1365004426.61036,14796.11426
1365004426.61043,14755.59766
1365004426.62445,14777.46191
1365004426.62452,14751.71289
1365004426.64051,14728.56543
1365004426.64069,14744.46973
1365004426.64936,14692.18945
1365004426.66441,14702.03418
1365004426.66448,14676.87207
1365004426.68036,14642.30371
1365004426.68043,14671.05762
1365004426.69641,14629.45312
1365004426.69647,14646.11426
1365004426.70242,14657.47461
1365004426.71837,14643.02441
1365004426.71844,14719.94141
1365004426.73434,14709.69336
1365004426.7344,14745.89844
1365004426.74936,14797.58008
1365004426.74944,14772.61328
1365004426.76239,14808.03613
1365004426.76247,14799.47363
1365004426.77344,14803.60254
1365004426.78842,14844.44922
1365004426.78848,14805.80078
1365004426.80348,14822.04688
1365004426.80365,14818.43164
1365004426.81748,14806.72949
1365004426.81755,14844.13184
1365004426.82735,14809.74609
1365004426.84357,14816.5498
1365004426.84403,14829.31543
1365004426.85841,14793.98926
1365004426.85847,14833.54102
1365004426.87343,14810.44238
1365004426.87377,14814.9502
1365004426.88742,14834.13965
1365004426.88748,14801.06152
1365004426.89834,14833.15039
1365004426.9144,14818.56543
1365004426.91463,14814.9502
1365004426.93334,14848.44336
1365004426.93356,14807.88965
1365004426.93941,14834.48145
1365004426.93951,14835.76465
1365004426.95238,14823.74512
1365004426.96836,14857.42188
1365004426.96845,14815.10938
1365004426.98239,14835.54492
1365004426.98246,14848.85938
1365004426.99842,14810.63867
1365004426.99879,14841.77441
1365004427.01239,14808.06055
1365004427.01246,14806.0332
1365004427.02241,14849.01758
1365004427.0384,14829.98633
1365004427.03847,14868.64746
1365004427.0524,14842.95898
1365004427.05247,14825.07617
1365004427.06847,14854.25781
1365004427.06897,14824.0625
1365004427.07448,14857.9834
1365004427.09239,14850.28809
1365004427.09245,14833.55371
1365004427.10837,14872.38477
1365004427.1086,14831.20801
1365004427.12238,14834.94629
1365004427.1226,14797.36035
1365004427.13539,14698.22363
1365004427.13555,14740.85352
1365004427.14736,15003.68359
1365004427.16753,15546.31055
1365004427.16826,15802.37402
1365004427.18236,15624.54785
1365004427.1826,15408.81934
1365004427.19534,15124.72266
1365004427.19547,14944.97852
1365004427.19833,14879.17676
1365004427.20736,14819.88477
1365004427.21745,14837.16895
1365004427.23238,14822.95117
1365004427.23258,14798.7168
1365004427.24539,14835.42285
1365004427.24562,14793.69629
1365004427.25936,14810.55273
1365004427.27041,14811.55469
1365004427.27064,14776.2041
1365004427.28941,14797.01855
1365004427.28949,14762.21777
1365004427.30537,14767.69043
1365004427.30555,14780.43066
1365004427.31739,14730.28809
1365004427.31746,14753.14258
1365004427.32336,14719.0625
1365004427.34038,14706.46875
1365004427.34055,14724.9375
1365004427.35539,14673.43945
1365004427.35545,14695.46289
1365004427.3704,14691.60352
1365004427.37063,14679.08301
1365004427.3875,14726.25684
1365004427.39431,14705.32031
1365004427.39442,14746.02051
1365004427.41238,14770.47559
1365004427.41262,14755.40234
1365004427.42734,14812.20215
1365004427.4274,14791.10645
1365004427.44037,14814.15625
1365004427.44839,14840.10059
1365004427.44845,14813.64355
1365004427.45736,14845.34082
1365004427.46533,14827.4707
1365004427.48044,14826.63965
1365004427.48053,14851.29004
1365004427.49537,14809.80762
1365004427.49563,14841.46875
1365004427.50939,14831.26953
1365004427.51837,14811.65234
1365004427.51846,14848.39453
1365004427.52536,14803.50488
1365004427.53539,14824.27051
1365004427.55041,14836.9375
1365004427.55047,14813.04492
1365004427.56539,14854.46582
1365004427.56573,14819.32324
1365004427.57437,14836.85156
1365004427.58935,14862.52734
1365004427.5894,14826.46875
1365004427.60535,14860.68262
1365004427.60557,14844.58398
1365004427.62239,14840.02734
1365004427.62248,14867.42578
1365004427.6354,14833.91992
1365004427.6424,14871.0293
1365004427.64246,14866.2041
1365004427.65943,14848.38281
1365004427.6596,14878.50488
1365004427.67436,14843.03223
1365004427.67443,14854.86914
1365004427.68845,14850.1416
1365004427.68852,14820.06836
1365004427.69939,14847.7959
1365004427.71544,14826.82324
1365004427.71563,14857.75098
1365004427.73041,14887.56836
1365004427.73059,14855.60156
1365004427.74442,14876.64844
1365004427.7445,14846.44043
1365004427.75855,14852.18164
1365004427.75895,14887.20215
1365004427.76939,14845.06055
1365004427.78439,14873.48438
1365004427.78446,14869.64844
1365004427.7994,14849.99512
1365004427.79964,14882.74316
1365004427.81244,14819.20117
1365004427.81251,14767.89746
1365004427.82335,14713.77344
1365004427.83835,14803.66309
1365004427.83844,15440.39453
1365004427.85735,16042.37402
1365004427.85742,15988.78711
1365004427.87337,15700.28125
1365004427.87344,15296.19629
1365004427.88139,15051.10254
1365004427.89246,14885.36914
1365004427.89263,14849.56738
1365004427.90837,14867.25488
1365004427.90844,14816.9043
1365004427.92341,14835.10449
1365004427.92358,14825.23535
1365004427.93737,14801.12305
1365004427.93743,14832.80859
1365004427.94836,14791.22852
1365004427.9634,14806.16797
1365004427.9635,14801.69727
1365004427.97842,14765.30859
1365004427.97849,14792.07129
1365004427.99346,14747.78027
1365004427.99364,14739.88867
1365004428.00736,14742.03906
1365004428.00743,14685.23926
1365004428.01836,14703.67188
1365004428.03337,14665.73145
1365004428.03344,14642.4375
1365004428.04839,14658.42676
1365004428.04845,14612.52344
1365004428.06245,14641.24023
1365004428.07239,14641.61914
1365004428.07246,14650.57324
1365004428.0884,14715.66699
1365004428.08849,14707.66602
1365004428.1094,14762.01074
1365004428.10947,14793.48828
1365004428.12532,14778.69629
1365004428.12538,14826.78613
1365004428.13636,14812.65332
1365004428.13643,14827.40918
1365004428.13928,14846.18359
1365004428.15844,14811.10254
1365004428.15862,14850.81348
1365004428.17238,14829.37598
1365004428.17246,14824.97852
1365004428.18936,14854.29492
1365004428.18946,14807.53516
1365004428.19338,14842.49512
1365004428.2124,14833.9082
1365004428.21247,14815.35352
1365004428.22836,14850.59375
1365004428.22843,14814.62012
1365004428.24041,14840.24707
1365004428.24047,14848.54102
1365004428.25532,14823.24414
1365004428.25538,14859.55957
1365004428.26738,14832.85742
1365004428.28336,14840.16211
1365004428.28341,14860.20703
1365004428.29735,14829.9502
1365004428.29742,14866.41211
1365004428.31142,14841.5791
1365004428.31936,14845.29199
1365004428.31945,14866.68066
1365004428.32837,14829.71777
1365004428.33841,14865.72754
1365004428.35532,14858.25195
1365004428.35538,14841.87207
1365004428.36835,14871.21191
1365004428.36842,14830.25586
1365004428.38065,14844.08301
1365004428.39049,14843.05664
1365004428.39067,14816.0127
1365004428.40535,14872.48242
1365004428.40542,14859.88867
1365004428.42246,14877.06348
1365004428.42263,14882.25488
1365004428.43537,14838.95215
1365004428.43544,14878.21191
1365004428.44536,14851.31445
1365004428.46036,14854.05078
1365004428.46043,14883.30566
1365004428.47543,14850.81348
1365004428.4755,14873.76562
1365004428.49039,14866.00879
1365004428.49049,14838.06055
1365004428.50443,14819.83594
1365004428.51565,14705.30859
1365004428.51575,14725.04785
1365004428.53034,15130.41504
1365004428.53041,15826.38867
1365004428.54538,16104.08496
1365004428.54545,15812.07227
1365004428.56838,15468.08594
1365004428.56845,15141.13965
1365004428.57234,14907.4668
1365004428.58433,14883.06055
1365004428.58439,14836.375
1365004428.5995,14828.96094
1365004428.59957,14849.27441
1365004428.61533,14809.72168
1365004428.61542,14831.17188
1365004428.62936,14815.3291
1365004428.63942,14796.00488
1365004428.63948,14820.33691
1365004428.65537,14771.7334
1365004428.65544,14793.36621
1365004428.66945,14789.61621
1365004428.66954,14753.49609
1365004428.68335,14772.20996
1365004428.68344,14728.24805
1365004428.69441,14727.34375
1365004428.70941,14721.49316
1365004428.70949,14668.62695
1365004428.72448,14686.0332
1365004428.72472,14650.86621
1365004428.74042,14645.06348
1365004428.74049,14668.29688
1365004428.75342,14635.26758
1365004428.75353,14676.41992
1365004428.76438,14702.84082
1365004428.77943,14729.34766
1365004428.7795,14794.70996
1365004428.79538,14775.21484
1365004428.79544,14817.33203
1365004428.81232,14833.45605
1365004428.81237,14818.89551
1365004428.81532,14856.9082
1365004428.82437,14823.62305
1365004428.83444,14841.88379
1365004428.84964,14858.98535
1365004428.84981,14820.74023
1365004428.86537,14857.62891
1365004428.86545,14835.84961
1365004428.87835,14838.80566
1365004428.88738,14864.64062
1365004428.88745,14823.85449
1365004428.89537,14850.76465
1365004428.90435,14836.00879
1365004428.91955,14821.69238
1365004428.91977,14848.1748
1365004428.9324,14812.4707
1365004428.93263,14840.89453
1365004428.9443,14845.41406
1365004428.95839,14827.32422
1365004428.95861,14862.60059
1365004428.97442,14828.42285
1365004428.97448,14839.94238
1365004428.98937,14857.99609
1365004428.9896,14826.34668
1365004429.0024,14857.51953
1365004429.00246,14836.94922
1365004429.01345,14831.87988
1365004429.0284,14855.89453
1365004429.02863,14820.10449
1365004429.04537,14848.66309
1365004429.04546,14840.58984
1365004429.05838,14830.28027
1365004429.05845,14856.95703
1365004429.06842,14805.92285
1365004429.08343,14825.40625
1365004429.08353,14822.90234
1365004429.09841,14810.62598
1365004429.09848,14876.48926
1365004429.11346,14849.62891
1365004429.11363,14852.95117
1365004429.12738,14858.60645
1365004429.12744,14827.99609
1365004429.13841,14866.77832
1365004429.15341,14843.45996
1365004429.15351,14842.6416
1365004429.16844,14869.99121
1365004429.16851,14828.59473
1365004429.18341,14855.80957
1365004429.18935,14837.13281
1365004429.18942,14788.99316
1365004429.20744,14751.9082
1365004429.20754,14679.48535
1365004429.22337,14954.26172
1365004429.22344,15621.88477
1365004429.23839,16024.62598
1365004429.23848,15877.52051
1365004429.25239,15513.3916
1365004429.26342,15166.85156
1365004429.26349,14957.91406
1365004429.28247,14840.54102
1365004429.28264,14852.85352
1365004429.2974,14805.12891
1365004429.29747,14796.63965
1365004429.30935,14820.78906
1365004429.30944,14775.75195
1365004429.31537,14807.19336
1365004429.3324,14789.0791
1365004429.33246,14770.71973
1365004429.34736,14794.52637
1365004429.34743,14743.99316
1365004429.36242,14753.96094
1365004429.3625,14756.42773
1365004429.37536,14716.33887
1365004429.37545,14739.83984
1365004429.38737,14691.81055
1365004429.40242,14688.12207
1365004429.40249,14681.19629
1365004429.41836,14635.56055
1365004429.41844,14663.17871
1365004429.43141,14626.39941
1365004429.4403,14620.36523
1365004429.44035,14643.85449
1365004429.44836,14618.37402
1365004429.45735,14674.79492
1365004429.47233,14691.9082
1365004429.47238,14716.74121
1365004429.48737,14768.94824
1365004429.48744,14746.19141
1365004429.50243,14783.33789
1365004429.50833,14792.74316
1365004429.50841,14775.47168
1365004429.52537,14818.85938
1365004429.52543,14792.32812
1365004429.54031,14804.84863
1365004429.54037,14819.03027
1365004429.55537,14784.86426
1365004429.55544,14818.39453
1365004429.56337,14793.86719
1365004429.58036,14788.82227
1365004429.58043,14818.7002
1365004429.59542,14780.8584
1365004429.5955,14809.97852
1365004429.61035,14793.74512
1365004429.61045,14786.69727
1365004429.62437,14820.04395
1365004429.63731,14778.73242
1365004429.63737,14813.26465
1365004429.65236,14809.92969
1365004429.65243,14782.51953
1365004429.66737,14826.23633
1365004429.66744,14792.91406
1365004429.68036,14808.43945
1365004429.68835,14832.22168
1365004429.68842,14800.46289
1365004429.69738,14831.53809
1365004429.70531,14803.67578
1365004429.7204,14809.44141
1365004429.72047,14829.13184
1365004429.73537,14785.19434
1365004429.73546,14805.97168
1365004429.74936,14785.5
1365004429.75842,14770.30469
1365004429.7585,14791.30176
1365004429.76737,14777.07129
1365004429.77537,14810.96777
1365004429.79041,14821.00879
1365004429.79048,14799.91309
1365004429.80544,14818.57812
1365004429.80562,14789.12793
1365004429.80942,14807.59668
1365004429.82943,14816.52539
1365004429.8295,14789.31055
1365004429.84933,14827.91016
1365004429.84941,14799.9502
1365004429.86439,14804.39648
1365004429.86448,14819.77539
1365004429.87636,14729.7627
1365004429.87643,14691.45605
1365004429.88236,14696.31836
1365004429.89937,15080.10156
1365004429.89943,15736.80371
1365004429.9145,15844.90625
1365004429.91475,15630.7168
1365004429.92841,15329.73926
1365004429.92848,15028.3457
1365004429.93945,14889.6084
1365004429.9544,14784.29004
1365004429.95448,14788.6875
1365004429.97537,14794.62402
1365004429.97544,14748.09766
1365004429.98843,14778.52539
1365004429.9885,14754.96191
1365004430.00029,14755.54883
1365004430.00531,14782.21387
1365004430.00537,14727.46582
1365004430.02442,14753.94824
1365004430.02449,14727.56445
1365004430.04054,14715.62988
1365004430.04074,14745.52051
1365004430.05236,14682.9668
1365004430.05243,14699.38379
1365004430.06336,14687.88965
1365004430.07837,14648.39844
1365004430.07844,14677.23828
1365004430.09342,14623.30859
1365004430.09348,14620.78027
1365004430.11036,14623.5293
1365004430.11044,14592.36816
1365004430.12241,14634.60742
1365004430.12247,14619.35156
1365004430.13342,14647.03027
1365004430.14835,14704.11133
1365004430.14842,14676.30957
1365004430.16338,14730.2998
1365004430.16347,14737.06738
1365004430.17735,14740.20605
1365004430.17742,14776.86328
1365004430.18846,14740.59766
1365004430.20839,14780.99219
1365004430.20847,14787.05078
1365004430.22341,14768.7041
1365004430.22348,14810.99219
1365004430.23432,14771.34277
1365004430.23438,14776.97363
1365004430.24737,14780.08887
1365004430.24759,14740.58496
1365004430.25837,14780.8457
1365004430.27536,14757.35645
1365004430.27543,14760.81348
1365004430.28939,14781.61523
1365004430.28946,14751.3584
1365004430.30239,14788.5293
1365004430.31237,14773.77344
1365004430.31244,14765.73633
1365004430.31937,14807.12012
1365004430.32837,14764.80762
1365004430.34337,14789.5791
1365004430.34344,14786.45215
1365004430.35841,14765.22266
1365004430.35849,14812.59277
1365004430.37238,14774.39648
1365004430.37245,14781.54199
1365004430.38244,14780.34473
1365004430.39731,14754.00977
1365004430.39736,14791.36328
1365004430.41236,14759.26172
1365004430.41243,14781.17578
1365004430.42837,14816.92871
1365004430.42843,14779.31934
1365004430.43532,14807.13281
1365004430.45543,14780.60156
1365004430.4555,14768.8877
1365004430.47046,14812.87402
1365004430.47063,14777.02246
1365004430.48238,14802.4668
1365004430.48245,14810.77246
1365004430.49531,14786.51367
1365004430.49537,14818.40723
1365004430.50736,14749.79492
1365004430.52237,14707.76367
1365004430.52244,14661.28516
1365004430.53536,14697.12402
1365004430.53542,15152.09668
1365004430.55148,15615.72852
1365004430.55936,15680.59082
1365004430.55941,15515.62695
1365004430.56746,15209.16504
1365004430.57736,15008.83887
1365004430.5924,14843.33789
1365004430.59247,14767.82422
1365004430.60734,14790.15332
1365004430.60742,14738.63086
1365004430.62042,14752.37305
1365004430.63034,14753.86328
1365004430.63043,14730.1416
1365004430.64534,14764.52637
1365004430.64542,14719.92969
1365004430.68836,14734.63672
1365004430.68843,14742.08789
1365004430.69031,14705.06445
1365004430.69036,14732.57227
1365004430.69332,14693.1543
1365004430.69429,14701.05762
1365004430.70038,14716.61914
1365004430.71537,14657.31543
1365004430.71544,14675.8457
1365004430.73034,14642.0957
1365004430.73041,14629.0498
1365004430.74437,14660.99219
1365004430.74444,14608.05273
1365004430.75538,14636.9043
1365004430.77038,14643.04883
1365004430.77045,14628.73242
1365004430.78741,14683.15039
1365004430.78748,14665.71973
1365004430.80068,14700.53223
1365004430.80838,14729.5918
1365004430.80845,14706.50488
1365004430.81537,14759.35938
1365004430.82536,14739.16797
1365004430.84036,14744.68945
1365004430.84043,14767.53125
1365004430.8554,14729.84863
1365004430.85549,14765.91895
1365004430.87039,14754.2168
1365004430.87844,14740.26758
1365004430.87851,14769.62012
1365004430.89335,14733.41504
1365004430.9024,14760.66699
1365004430.90837,14752.76367
1365004430.90858,14729.05469
1365004430.92834,14775.71582
1365004430.92852,14733.86719
1365004430.93237,14753.06934
1365004430.94941,14771.87988
1365004430.94949,14741.23242
1365004430.96439,14776.7168
1365004430.96462,14748.91602
1365004430.97943,14749.13574
1365004430.9795,14772.22168
1365004430.99345,14732.66992
1365004431.00439,14769.58398
1365004431.0046,14746.0332
1365004431.01943,14741.00098
1365004431.01951,14772.68652
1365004431.03441,14732.53516
1365004431.03472,14763.31738
1365004431.04841,14754.00977
1365004431.04848,14723.93652
1365004431.05938,14753.7168
1365004431.0744,14715.45898
1365004431.07462,14754.49805
1365004431.09031,14789.33496
1365004431.09044,14755.79297
1365004431.10436,14789.2373
1365004431.10461,14750.16211
1365004431.13053,14751.45605
1365004431.13072,14785.73145
1365004431.13242,14746.58301
1365004431.1444,14775.64258
1365004431.14447,14760.44629
1365004431.15937,14752.59277
1365004431.15946,14776.82715
1365004431.1724,14731.5459
1365004431.17247,14711.47656
1365004431.18438,14640.84961
1365004431.19938,14615.74805
1365004431.19945,14971.68066
1365004431.20533,15584.36035
1365004431.21539,15890.26074
1365004431.23341,15698.05762
1365004431.23351,15365.18652
1365004431.24342,15074.91016
1365004431.25335,14846.23242
1365004431.25343,14772.93066
1365004431.26838,14773.37012
1365004431.26846,14719.77051
1365004431.28438,14748.56152
1365004431.28445,14724.02148
1365004431.29735,14709.58398
1365004431.29742,14743.05273
1365004431.30844,14698.3457
1365004431.32434,14717.92676
1365004431.32441,14708.26465
1365004431.33944,14687.75488
1365004431.33951,14716.98535
1365004431.35332,14670.4834
1365004431.35339,14671.16699
1365004431.3674,14666.5498
1365004431.36747,14619.87695
1365004431.37939,14640.60547
1365004431.39937,14589.2168
1365004431.39944,14580.42188
1365004431.41339,14594.07812
1365004431.41348,14544.53418
1365004431.42436,14570.57715
1365004431.42445,14558.27637
1365004431.43037,14570.13672
1365004431.43834,14633.27637
1365004431.44842,14616.29785
1365004431.46339,14669.28613
1365004431.46349,14692.21387
1365004431.47844,14688.36621
1365004431.47854,14741.5625
1365004431.4924,14712.14844
1365004431.49251,14731.52148
1365004431.50236,14748.86719
1365004431.51736,14712.7959
1365004431.51753,14757.47852
1365004431.53237,14740.63379
1365004431.53244,14742.78418
1365004431.54736,14759.83594
1365004431.54742,14720.58887
1365004431.55756,14758.23633
1365004431.57237,14743.82227
1365004431.57244,14734.50195
1365004431.58735,14762.48633
1365004431.58746,14717.9873
1365004431.60239,14741.45215
1365004431.60246,14740.86621
1365004431.61734,14721.39551
1365004431.61739,14752.92188
1365004431.62738,14719.77051
1365004431.64239,14740.35352
1365004431.64246,14751.84766
1365004431.65734,14723.80176
1365004431.65741,14764.84375
1365004431.67144,14734.92969
1365004431.67935,14736.88379
1365004431.6794,14765.6875
1365004431.68748,14726.80664
1365004431.69741,14750.65039
1365004431.71241,14730.32422
1365004431.71249,14719.70996
1365004431.72738,14747.42578
1365004431.72761,14712.19727
1365004431.74038,14756.77051
1365004431.75031,14773.62695
1365004431.75036,14754.64453
1365004431.7674,14780.17383
1365004431.76747,14735.16211
1365004431.78036,14756.94141
1365004431.78042,14775.92285
1365004431.79455,14745.21484
1365004431.79495,14786.3916
1365004431.80539,14766.88379
1365004431.82037,14769.09473
1365004431.82047,14787.61328
1365004431.83741,14734.35547
1365004431.83748,14701.02051
1365004431.85232,14613.8916
1365004431.85239,14663.75293
1365004431.86537,15226.83984
1365004431.86544,15883.48145
1365004431.87533,15959.8252
1365004431.89237,15665.37012
1365004431.89254,15271.98633
1365004431.9074,14999.44531
1365004431.90748,14801.25684
1365004431.92038,14773.11328
1365004431.92941,14770.57324
1365004431.92962,14728.21094
1365004431.93734,14750.95605
1365004431.94535,14718.3418
1365004431.96036,14721.37109
1365004431.96063,14731.60742
1365004431.97537,14695.12109
1365004431.97544,14730.62988
1365004431.98838,14702.59668
1365004431.99941,14688.57324
1365004431.99948,14707.48242
1365004432.00733,14656.35059
1365004432.01841,14664.52246
1365004432.03743,14646.28516
1365004432.0375,14611.63184
1365004432.05138,14630.56445
1365004432.05145,14568.61035
1365004432.05735,14563.98047
1365004432.06942,14571.07812
1365004432.0695,14531.29297
1365004432.08736,14561.70898
1365004432.08742,14539.29395
1365004432.1054,14576.09766
1365004432.10547,14630.98047
1365004432.11531,14615.08789
1365004432.12236,14675.99219
1365004432.12243,14691.27344
1365004432.13961,14698.44336
1365004432.13981,14748.84277
1365004432.15447,14719.92969
1365004432.15471,14749.49023
1365004432.16838,14749.83203
1365004432.16844,14726.20801
1365004432.17932,14764.58789
1365004432.19837,14730.98438
1365004432.19844,14741.85547
1365004432.21436,14755.08398
1365004432.21443,14719.0498
1365004432.22836,14752.89746
1365004432.22843,14719.26953
1365004432.23937,14721.11426
1365004432.24529,14753.02051
1365004432.24534,14712.52734
1365004432.25341,14740.97559
1365004432.2644,14734.83203
1365004432.27944,14734.34375
1365004432.2796,14769.35156
1365004432.29237,14725.89062
1365004432.29244,14753.3252
1365004432.30342,14752.36035
1365004432.31839,14733.01172
1365004432.31846,14773.6875
1365004432.33944,14731.13086
1365004432.33951,14753.42285
1365004432.35441,14767.43359
1365004432.35451,14740.95117
1365004432.36541,14777.29102
1365004432.36548,14745.49609
1365004432.37234,14739.70605
1365004432.38836,14753.1543
1365004432.38843,14713.07715
1365004432.40944,14736.59082
1365004432.40951,14744.64062
1365004432.42037,14759.27441
1365004432.42538,14796.21191
1365004432.42545,14747.68164
1365004432.43533,14756.97754
1365004432.44536,14767.40918
1365004432.45951,14754.10742
1365004432.45958,14788.38281
1365004432.47336,14748.70801
1365004432.47345,14770.89062
1365004432.48739,14787.08789
1365004432.48758,14748.28027
1365004432.49841,14781.23633
1365004432.51351,14708.91211
1365004432.51371,14636.59863
1365004432.52838,14641.06934
1365004432.5286,14923.44336
1365004432.54232,15693.62402
1365004432.54238,16028.91309
1365004432.55342,15773.72949
1365004432.56341,15461.00098
1365004432.57238,15061.36328
1365004432.57836,14865.25195
1365004432.58839,14789.13965
1365004432.60339,14756.33008
1365004432.60346,14774.7627
1365004432.61532,14732.08398
1365004432.6224,14738.41113
1365004432.62247,14742.72266
1365004432.63841,14708.64258
1365004432.63848,14736.67676
1365004432.65238,14704.58789
1365004432.65262,14699.99512
1365004432.66741,14715.60547
1365004432.66748,14667.64941
1365004432.67734,14693.44727
1365004432.69345,14662.4707
1365004432.69352,14643.61035
1365004432.70832,14660.35742
1365004432.70837,14602.91016
1365004432.72238,14604.20508
1365004432.72244,14584.24512
1365004432.73537,14547.14844
1365004432.73546,14569.34277
1365004432.74736,14531.59863
1365004432.76242,14558.8623
1365004432.76252,14593.76074
1365004432.77743,14586.79883
1365004432.7775,14648.12988
1365004432.79245,14653.80957
1365004432.79937,14679.44922
1365004432.79945,14720.23535
1365004432.80731,14702.97559
1365004432.81737,14752.82422
1365004432.83242,14741.78223
1365004432.83248,14736.67676
1365004432.84736,14771.79492
1365004432.84743,14734.42871
1365004432.86041,14763.98926
1365004432.87035,14763.94043
1365004432.8704,14741.63574
1365004432.88838,14768.31348
1365004432.88844,14737.55566
1365004432.90542,14754.3877
1365004432.90558,14764.84375
1365004432.91534,14733.68359
1365004432.91541,14769.24121
1365004432.92538,14741.96582
1365004432.94034,14751.5791
1365004432.94057,14777.08398
1365004432.95538,14738.92383
1365004432.95545,14782.44629
1365004432.97033,14766.1875
1365004432.97038,14759.67676
1365004432.98536,14793.36621
1365004432.98543,14748.47656
1365004432.99541,14775.38574
1365004433.01046,14777.81641
1365004433.01056,14755.03516
1365004433.02842,14790.81348
1365004433.0285,14747.05957
1365004433.04238,14754.97461
1365004433.04259,14767.20215
1365004433.04836,14737.94629
1365004433.05537,14788.94434
1365004433.06538,14777.97559
1365004433.08036,14791.66797
1365004433.08043,14808.8916
1365004433.09541,14758.28516
1365004433.09547,14799.10742
1365004433.10838,14787.25879
1365004433.11938,14777.37695
1365004433.11945,14806.22852
1365004433.12736,14763.42676
1365004433.13531,14794.09863
1365004433.1524,14796.46875
1365004433.15247,14764.25781
1365004433.16335,14765.72363
1365004433.1634,14650.47559
1365004433.17452,14635.47559
1365004433.1944,14864.44531
1365004433.19448,15507.52832
1365004433.21037,16011.23828
1365004433.21044,15811.63281
1365004433.22446,15491.16016
1365004433.22454,15142.0918
1365004433.23733,14866.91309
1365004433.23739,14804.4082
1365004433.2404,14763.06055
1365004433.26343,14740.69531
1365004433.26349,14761.87598
1365004433.27935,14716.81445
1365004433.27942,14737.49512
1365004433.29043,14729.2373
1365004433.29434,14710.71973
1365004433.2944,14739.5957
1365004433.30347,14695.8291
1365004433.31436,14699.33496
1365004433.3304,14697.41699
1365004433.33047,14652.53906
1365004433.34347,14676.65234
1365004433.34365,14637.06348
1365004433.35846,14625.94727
1365004433.35853,14631.88379
1365004433.36935,14572.22559
1365004433.37736,14594.7627
1365004433.38436,14561.37891
1365004433.4003,14540.83301
1365004433.40035,14565.39746
1365004433.41337,14528.1543
1365004433.41344,14568.59766
1365004433.42342,14584.97852
1365004433.43845,14596.7168
1365004433.43862,14661.43164
1365004433.45434,14654.66504
1365004433.45441,14697.36816
1365004433.46934,14718.47559
1365004433.46941,14698.02832
1365004433.48339,14741.09863
1365004433.48346,14708.48438
1365004433.49338,14729.37207
1365004433.50836,14749.77051
1365004433.50844,14703.58594
1365004433.52343,14738.03223
1365004433.5235,14728.95605
1365004433.53742,14724.14355
1365004433.53752,14747.19336
1365004433.54836,14709.32715
1365004433.56338,14742.54004
1365004433.56345,14742.73535
1365004433.57835,14714.72559
1365004433.57842,14754.80371
1365004433.59338,14716.3877
1365004433.59345,14727.36816
1365004433.60738,14742.36816
1365004433.60745,14714.15234
1365004433.61839,14757.78418
1365004433.63346,14735.82129
1365004433.63363,14740.31641
1365004433.64938,14772.05078
1365004433.64945,14731.79004
1365004433.66237,14749.53906
1365004433.67044,14720.61328
1365004433.67054,14713.3584
1365004433.68836,14742.99121
1365004433.68928,14726.79492
1365004433.70236,14767.23828
1365004433.70243,14770.30469
1365004433.74539,14740.96387
1365004433.74546,14771.02539
1365004433.7473,14740.74414
1365004433.74735,14761.22852
1365004433.7493,14777.53516
1365004433.75734,14744.09082
1365004433.75739,14783.37402
1365004433.7734,14756.48926
1365004433.7735,14757.49121
1365004433.7884,14771.42773
1365004433.78848,14686.43652
1365004433.79234,14636.45215
1365004433.81238,14611.30176
1365004433.81245,14950.65918
1365004433.82735,15683.11914
1365004433.82741,15929.09277
1365004433.84239,15722.97656
1365004433.84246,15383.2168
1365004433.85443,15020.28418
1365004433.85451,14853.90332
1365004433.86533,14743.66309
1365004433.88237,14737.67773
1365004433.88244,14742.89355
1365004433.89735,14702.81641
1365004433.89743,14731.68066
1365004433.9114,14706.83496
1365004433.92239,14706.38281
1365004433.92246,14722.93457
1365004433.92932,14674.41699
1365004433.93838,14700.78906
1365004433.95337,14682.29492
1365004433.95344,14658.02441
1365004433.96736,14682.89355
1365004433.96744,14636.63574
1365004433.98236,14645.21094
1365004433.98833,14621.37891
1365004433.98839,14582.57227
1365004434.0074,14604.29004
1365004434.00747,14547.18555
1365004434.02239,14550.73926
1365004434.02245,14562.58789
1365004434.03737,14524.68555
1365004434.03744,14569.26953
1365004434.04033,14557.84863
1365004434.06032,14589.16797
1365004434.06039,14642.73047
1365004434.07534,14630.66211
1365004434.07541,14689.16016
1365004434.09042,14686.19141
1365004434.09049,14693.74023
1365004434.10438,14738.64258
1365004434.11543,14696.45215
1365004434.11549,14724.9375
1365004434.13035,14723.1543
1365004434.13044,14697.99121
1365004434.1454,14742.03906
1365004434.1455,14702.52344
1365004434.16041,14707.50684
1365004434.16051,14722.9707
1365004434.17038,14688.30469
1365004434.18542,14730.77637
1365004434.1855,14692.87305
1365004434.22637,14694.25391
1365004434.22646,14722.94629
1365004434.22833,14676.82324
1365004434.22841,14719.90527
1365004434.23032,14708.31348
1365004434.23041,14697.84473
1365004434.24039,14727.99121
1365004434.25462,14693.44727
1365004434.25484,14721.75
1365004434.27252,14717.00977
1365004434.27271,14692.91016
1365004434.28335,14720.71094
1365004434.28342,14673.84277
1365004434.29434,14685.62988
1365004434.30937,14703.92773
1365004434.30944,14688.61035
1365004434.32432,14741.0498
1365004434.32437,14714.56738
1365004434.34038,14703.1709
1365004434.34045,14726.80664
1365004434.35537,14694.47363
1365004434.35546,14726.95312
1365004434.36441,14718.23145
1365004434.37936,14709.31445
1365004434.37943,14739.3877
1365004434.39452,14696.63574
1365004434.39459,14727.00195
1365004434.40837,14713.44336
1365004434.40844,14638.32129
1365004434.41938,14609.82324
1365004434.43442,14572.88574
1365004434.43452,14936.08594
1365004434.45442,15617.30469
1365004434.45448,15845.85938
1365004434.46839,15674.50781
1365004434.46846,15308.74121
1365004434.48042,14980.3291
1365004434.48534,14808.1582
1365004434.48539,14704.00098
1365004434.50438,14723.91211
1365004434.50447,14692.4707
1365004434.51938,14679.53418
1365004434.51946,14709.08301
1365004434.53239,14656.10645
1365004434.53245,14681.89258
